
Integration time [ms]:   1.500
Averaging Nr. [scans]: 100
Smoothing Nr. [pixels]: 3
Data measured with spectrometer [name]: 1908047U1
Wave   ;Sample   ;Dark     ;Reference;Scope
[nm]   ;[counts] ;[counts] ;[counts] 

128.909;  154.311;   -0.956;   81.480
129.461;  166.225;   -2.716;   68.201
130.013;  175.760;   -5.226;  127.577
130.565;  174.021;   -5.833;   92.420
131.118;  176.761;   -7.108;   92.061
131.670;  176.100;   -8.558;   89.289
132.222;  178.488;   -9.323;   90.332
132.774;  181.075;   -9.738;   93.177
133.326;  179.885;   -9.531;   87.110
133.879;  184.645;   -9.040;  112.505
134.431;  186.728;   -8.584;  114.788
134.983;  190.682;   -7.924;  120.104
135.536;  198.322;   -6.583;  140.699
136.088;  201.936;   -5.250;  143.215
136.640;  207.482;   -3.798;  161.972
137.193;  215.055;   -2.756;  177.550
137.745;  217.155;   -1.884;  166.469
138.297;  222.069;   -1.080;  175.815
138.850;  224.308;    0.217;  169.282
139.402;  221.455;    1.163;  145.747
139.955;  221.575;    1.837;  140.625
140.507;  221.915;    1.986;  135.541
141.059;  222.488;    2.133;  140.475
141.612;  216.997;    2.262;  118.250
142.164;  214.574;    2.540;  108.850
142.717;  212.155;    2.220;  110.377
143.269;  217.822;    2.054;  127.122
143.822;  219.437;    1.553;  131.258
144.374;  219.386;    1.423;  117.332
144.927;  223.473;    1.552;  138.005
145.479;  231.313;    1.683;  164.124
146.032;  231.776;    1.249;  162.761
146.585;  222.966;    0.549;  159.004
147.137;  221.588;    0.057;  154.978
147.690;  224.721;    0.379;  162.423
148.242;  226.442;    0.360;  165.702
148.795;  222.520;   -0.123;  135.965
149.348;  230.664;   -0.437;  161.531
149.900;  234.455;   -0.683;  168.784
150.453;  244.302;   -0.416;  167.544
151.006;  245.065;   -0.317;  157.140
151.558;  241.155;   -0.691;  131.408
152.111;  240.797;   -1.101;  125.534
152.664;  242.658;   -1.121;  125.643
153.217;  263.250;   -0.413;  165.077
153.769;  271.447;    0.327;  186.637
154.322;  278.923;    0.566;  207.353
154.875;  280.528;    0.433;  221.057
155.428;  283.888;    0.063;  236.716
155.981;  284.742;    0.100;  236.154
156.533;  286.640;    0.427;  245.665
157.086;  262.912;   -0.161;  187.529
157.639;  252.303;   -0.830;  156.059
158.192;  252.396;   -1.161;  153.487
158.745;  256.068;   -1.164;  150.934
159.298;  259.610;   -0.594;  162.720
159.851;  261.570;   -0.151;  179.672
160.403;  263.150;   -0.346;  180.200
160.956;  267.378;   -0.558;  191.508
161.509;  269.230;   -0.891;  209.365
162.062;  268.015;   -0.766;  210.421
162.615;  268.651;   -0.300;  215.667
163.168;  266.961;   -0.528;  206.383
163.721;  267.585;   -0.731;  201.954
164.274;  267.562;   -0.873;  194.270
164.827;  262.587;   -0.904;  165.926
165.380;  266.049;   -0.003;  167.377
165.933;  273.413;    0.656;  194.129
166.486;  279.596;    0.630;  223.380
167.039;  279.879;    0.490;  223.937
167.592;  277.501;    0.099;  220.099
168.145;  276.157;    0.239;  219.343
168.698;  277.464;    0.633;  233.576
169.251;  279.991;    0.546;  250.380
169.805;  271.660;   -0.151;  231.070
170.358;  263.863;   -0.627;  205.186
170.911;  261.357;   -0.514;  206.950
171.464;  264.349;    0.264;  213.754
172.017;  263.726;    0.496;  212.202
172.570;  262.253;   -0.048;  204.650
173.123;  253.229;   -0.650;  165.281
173.677;  250.930;   -0.624;  145.419
174.230;  252.109;   -0.040;  137.518
174.783;  253.358;    0.146;  128.423
175.336;  252.905;   -0.388;  122.164
175.889;  252.535;   -0.823;  131.546
176.443;  250.326;   -0.943;  142.725
176.996;  249.899;   -0.631;  150.585
177.549;  252.361;   -0.251;  152.597
178.102;  244.588;   -0.776;  154.093
178.656;  244.039;   -1.050;  162.210
179.209;  252.668;   -0.793;  194.327
179.762;  257.381;   -0.216;  200.188
180.316;  261.299;    0.432;  195.494
180.869;  266.399;    0.357;  203.059
181.422;  266.379;   -0.097;  206.060
181.976;  275.190;   -0.141;  208.198
182.529;  276.580;   -0.067;  209.382
183.082;  270.756;    0.160;  195.925
183.636;  272.177;    0.277;  209.978
184.189;  276.257;    0.227;  223.233
184.742;  276.154;    0.203;  222.744
185.296;  279.065;    0.527;  234.617
185.849;  279.318;    1.033;  243.134
186.403;  283.581;    1.534;  258.465
186.956;  286.317;    1.486;  272.314
187.510;  276.850;    0.730;  250.674
188.063;  271.145;    0.337;  233.093
188.616;  271.757;    0.616;  242.778
189.170;  277.702;    1.193;  268.651
189.723;  279.214;    1.132;  275.893
190.277;  278.169;    0.729;  277.982
190.830;  269.443;    0.172;  253.698
191.384;  271.727;    0.529;  255.823
191.937;  272.037;    0.950;  258.270
192.491;  269.841;    0.780;  249.932
193.044;  261.665;    0.199;  221.050
193.598;  257.679;   -0.220;  206.899
194.152;  255.621;   -0.194;  192.022
194.705;  251.706;    0.213;  183.121
195.259;  251.224;    0.453;  178.953
195.812;  250.627;    0.172;  179.429
196.366;  249.207;   -0.017;  169.020
196.919;  249.655;   -0.017;  177.349
197.473;  251.454;    0.549;  197.773
198.027;  250.085;    0.733;  210.611
198.580;  251.739;    0.504;  218.090
199.134;  258.077;    0.286;  251.004
199.688;  260.622;    0.156;  279.800
200.241;  260.116;    0.460;  287.300
200.795;  261.376;    0.899;  301.186
201.349;  260.916;    0.862;  299.919
201.902;  256.287;    0.462;  282.093
202.456;  257.988;    0.543;  285.254
203.010;  253.903;    0.820;  271.297
203.563;  247.827;    1.349;  241.150
204.117;  243.864;    1.250;  235.284
204.671;  235.344;    0.706;  203.856
205.224;  231.435;    0.377;  201.152
205.778;  231.475;    0.616;  210.287
206.332;  225.175;    0.850;  193.502
206.886;  215.337;    0.677;  169.325
207.439;  210.688;    0.339;  170.309
207.993;  205.946;    0.123;  170.826
208.547;  206.162;    0.220;  197.406
209.101;  203.260;    0.629;  213.198
209.655;  199.366;    0.942;  223.561
210.208;  196.038;    0.852;  234.685
210.762;  193.426;    0.606;  240.586
211.316;  189.753;    0.357;  259.985
211.870;  188.155;    0.616;  271.264
212.424;  179.006;    0.707;  251.076
212.978;  173.484;    0.354;  234.412
213.531;  167.746;   -0.331;  230.097
214.085;  174.771;   -0.361;  265.819
214.639;  179.881;   -0.186;  298.030
215.193;  191.264;    0.516;  327.768
215.747;  194.944;    0.559;  339.924
216.301;  207.246;    0.333;  378.115
216.855;  211.607;    0.040;  380.979
217.408;  216.638;    0.102;  385.425
217.962;  220.476;    0.507;  398.915
218.516;  225.295;    0.750;  412.690
219.070;  224.413;    0.286;  414.748
219.624;  228.851;   -0.047;  468.086
220.178;  227.048;   -0.281;  503.832
220.732;  227.259;    0.163;  559.737
221.286;  229.848;    0.552;  639.033
221.840;  226.070;    0.197;  688.959
222.394;  220.358;   -0.250;  748.833
222.948;  211.148;   -0.606;  814.889
223.502;  206.545;   -0.263;  874.108
224.056;  210.056;    0.542;  981.147
224.610;  214.132;    0.659; 1079.019
225.164;  217.565;    0.507; 1148.415
225.718;  219.927;    0.254; 1222.435
226.272;  223.170;    0.537; 1299.885
226.826;  231.899;    1.133; 1396.841
227.380;  236.156;    1.299; 1478.244
227.934;  242.963;    1.149; 1574.331
228.488;  243.843;    0.656; 1663.035
229.042;  245.581;    0.607; 1761.206
229.596;  249.604;    1.153; 1869.580
230.150;  254.452;    1.426; 2018.704
230.704;  257.697;    1.319; 2124.937
231.258;  259.206;    0.973; 2227.511
231.812;  252.790;    0.672; 2288.332
232.366;  251.449;    1.106; 2359.752
232.920;  249.629;    1.500; 2434.752
233.475;  244.630;    1.270; 2478.347
234.029;  237.811;    0.827; 2519.393
234.583;  231.852;    0.623; 2576.057
235.137;  223.581;    0.583; 2617.121
235.691;  217.338;    0.956; 2652.944
236.245;  209.823;    0.967; 2687.143
236.799;  199.044;    0.484; 2698.259
237.353;  189.665;    0.032; 2752.390
237.907;  183.813;    0.153; 2761.727
238.462;  175.256;    0.413; 2785.468
239.016;  172.922;    0.717; 2812.104
239.570;  169.466;    0.362; 2827.286
240.124;  163.877;   -0.247; 2822.374
240.678;  167.214;   -0.058; 2856.755
241.232;  171.488;    0.580; 2850.436
241.787;  170.285;    0.866; 2825.305
242.341;  172.287;    0.844; 2775.853
242.895;  172.808;    0.547; 2729.929
243.449;  171.310;    0.470; 2661.678
244.003;  175.221;    0.993; 2640.098
244.558;  172.368;    1.139; 2596.839
245.112;  166.924;    0.827; 2559.348
245.666;  166.070;    0.262; 2550.339
246.220;  167.505;   -0.176; 2576.008
246.774;  173.201;    0.074; 2613.732
247.329;  176.874;    0.366; 2665.573
247.883;  179.788;    0.383; 2716.526
248.437;  185.789;    0.142; 2772.716
248.991;  201.155;    0.247; 2899.593
249.546;  213.703;    0.579; 3009.092
250.100;  224.412;    1.172; 3096.640
250.654;  232.682;    1.290; 3213.949
251.208;  244.006;    0.979; 3342.878
251.763;  259.369;    0.759; 3492.765
252.317;  300.299;    1.510; 3802.482
252.871;  322.611;    1.807; 3958.187
253.425;  345.098;    2.212; 4150.249
253.980;  373.208;    2.153; 4415.629
254.534;  404.025;    1.869; 4636.183
255.088;  438.893;    1.747; 4869.483
255.642;  478.681;    1.882; 5141.348
256.197;  503.634;    1.570; 5310.366
256.751;  554.004;    1.357; 5628.093
257.305;  613.257;    0.804; 5929.252
257.860;  677.457;    0.476; 6235.714
258.414;  751.791;    0.497; 6637.004
258.968;  838.971;    1.073; 7066.455
259.523;  941.156;    1.457; 7492.314
260.077; 1044.691;    1.330; 7883.355
260.631; 1149.340;    0.829; 8234.991
261.186; 1270.839;    0.966; 8614.577
261.740; 1398.211;    1.572; 8973.924
262.294; 1526.508;    1.673; 9295.035
262.849; 1674.815;    1.484; 9672.979
263.403; 1828.114;    1.190;10019.032
263.957; 1992.816;    0.854;10365.578
264.512; 2154.025;    1.250;10705.432
265.066; 2321.156;    1.463;11028.701
265.620; 2499.633;    1.007;11322.521
266.175; 2687.760;    0.616;11636.590
266.729; 2865.766;    0.080;11821.056
267.283; 3064.475;   -0.010;12053.292
267.838; 3270.601;    0.469;12269.140
268.392; 3485.723;    0.656;12475.800
268.946; 3695.275;    0.369;12694.704
269.501; 3913.904;    0.183;12898.050
270.055; 4127.212;    0.549;13070.373
270.610; 4298.884;    1.290;13247.700
271.164; 4426.298;    1.603;13348.588
271.718; 4514.425;    1.359;13437.129
272.273; 4567.946;    1.006;13527.156
272.827; 4587.070;    1.039;13589.958
273.381; 4544.145;    1.626;13652.798
273.936; 4458.895;    1.967;13693.679
274.490; 4343.805;    1.659;13759.029
275.045; 4178.542;    0.996;13775.910
275.599; 4002.177;    0.789;13782.016
276.153; 3812.693;    1.163;13820.409
276.708; 3588.422;    1.484;13848.893
277.262; 3353.051;    1.116;13903.695
277.817; 3124.872;    0.623;14007.138
278.371; 2904.483;    0.469;14136.773
278.925; 2712.406;    1.012;14346.304
279.480; 2503.746;    1.474;14613.256
280.034; 2297.011;    1.289;14904.528
280.589; 2125.380;    0.996;15302.363
281.143; 1955.772;    0.656;15618.002
281.698; 1793.628;    0.680;15940.294
282.252; 1668.042;    1.693;16291.759
282.806; 1536.281;    2.107;16682.402
283.361; 1409.065;    1.740;17101.295
283.915; 1290.009;    1.566;17561.377
284.470; 1176.507;    1.603;17888.264
285.024; 1067.825;    2.146;18173.012
285.579;  960.291;    2.663;18531.531
286.133;  837.337;    1.952;18901.814
286.687;  723.725;    1.124;19216.586
287.242;  634.978;    1.049;19572.494
287.796;  554.382;    1.319;19864.744
288.351;  478.682;    1.293;20240.389
288.905;  426.713;    1.307;20798.324
289.460;  373.715;    0.924;21286.486
290.014;  329.410;    0.769;21790.734
290.569;  295.387;    1.099;22316.279
291.123;  266.601;    1.524;22857.588
291.677;  242.814;    1.614;23385.848
292.232;  218.588;    1.654;23904.844
292.786;  194.095;    1.236;24358.730
293.341;  178.218;    1.123;24727.863
293.895;  166.996;    1.424;25123.277
294.450;  159.333;    1.734;25524.271
295.004;  155.757;    1.660;25811.418
295.559;  150.143;    1.344;26092.074
296.113;  145.867;    1.007;26333.066
296.667;  141.797;    1.153;26507.764
297.222;  142.969;    1.546;26739.646
297.776;  141.200;    1.497;26858.646
298.331;  138.936;    1.074;26864.711
298.885;  135.857;    0.813;26810.711
299.440;  137.404;    0.924;26722.340
299.994;  136.127;    1.496;26606.666
300.549;  136.246;    1.870;26585.238
301.103;  130.550;    1.510;26531.613
301.658;  133.709;    1.507;26449.648
302.212;  132.503;    1.649;26399.551
302.766;  129.242;    2.019;26372.904
303.321;  125.042;    2.332;26403.324
303.875;  128.241;    2.316;26491.959
304.430;  126.027;    1.829;26471.434
304.984;  125.799;    1.706;26514.270
305.539;  120.041;    1.530;26622.086
306.093;  126.057;    2.134;26824.564
306.648;  128.604;    1.822;27084.906
307.202;  127.432;    1.302;27340.906
307.756;  122.790;    0.894;27544.486
308.311;  123.991;    1.387;27814.803
308.865;  122.751;    1.893;28011.299
309.420;  130.362;    2.279;28199.574
309.974;  123.213;    1.633;28340.434
310.529;  121.297;    1.516;28338.043
311.083;  116.994;    1.613;28281.004
311.638;  117.462;    2.163;28047.199
312.192;  115.158;    2.329;27875.396
312.747;  114.399;    2.009;27810.410
313.301;  106.312;    1.543;27785.930
313.855;  102.439;    1.253;27746.797
314.410;  102.106;    1.904;27830.840
314.964;  105.507;    2.407;27972.625
315.519;  104.778;    2.216;28425.551
316.073;  101.919;    1.554;28824.047
316.628;  103.400;    1.422;29130.102
317.182;  104.147;    1.694;29528.285
317.736;  106.086;    2.139;29925.502
318.291;  111.664;    1.876;30299.746
318.845;  116.344;    1.516;30697.639
319.400;  123.562;    1.159;30855.463
319.954;  132.308;    1.423;31015.430
320.509;  146.387;    1.697;31209.553
321.063;  162.629;    1.430;31187.637
321.617;  184.841;    1.064;31147.822
322.172;  209.981;    0.469;31148.564
322.726;  245.513;    0.536;31027.078
323.281;  292.868;    1.067;31078.949
323.835;  354.372;    1.472;30995.207
324.390;  417.576;    1.394;30892.326
324.944;  490.842;    1.324;30724.332
325.498;  570.745;    1.257;30569.758
326.053;  657.549;    1.956;30409.090
326.607;  746.644;    2.116;30261.652
327.162;  839.539;    1.872;29994.971
327.716;  932.447;    1.424;29789.141
328.270; 1032.175;    1.204;29503.053
328.825; 1132.841;    1.574;29315.000
329.379; 1247.652;    2.222;29152.016
329.934; 1354.774;    2.087;28887.242
330.488; 1456.468;    1.857;28662.639
331.042; 1559.072;    1.616;28513.902
331.597; 1659.812;    1.512;28416.201
332.151; 1762.748;    2.052;28439.477
332.706; 1882.553;    2.127;28491.287
333.260; 1967.046;    1.584;28518.180
333.814; 2061.784;    1.354;28708.705
334.369; 2158.232;    1.309;28963.756
334.923; 2247.372;    1.839;29207.672
335.477; 2324.230;    2.197;29507.557
336.032; 2395.546;    1.890;29740.414
336.586; 2438.180;    1.540;29957.424
337.140; 2498.856;    1.644;30124.875
337.695; 2558.825;    2.210;30217.273
338.249; 2610.207;    2.759;30163.551
338.804; 2636.556;    2.517;30131.803
339.358; 2670.278;    2.399;29945.625
339.912; 2680.376;    2.323;29680.383
340.467; 2676.648;    2.247;29450.922
341.021; 2664.238;    2.737;29186.371
341.575; 2637.207;    2.416;28884.750
342.130; 2611.114;    1.889;28621.021
342.684; 2598.337;    1.543;28255.734
343.238; 2578.332;    1.394;27933.422
343.793; 2583.427;    1.564;27596.031
344.347; 2600.114;    1.837;27245.014
344.901; 2622.221;    1.283;26948.455
345.455; 2659.369;    1.007;26646.621
346.010; 2686.431;    0.923;26303.057
346.564; 2754.087;    1.790;25967.205
347.118; 2811.688;    2.282;25617.910
347.673; 2867.802;    2.040;25298.354
348.227; 2926.764;    1.614;24984.043
348.781; 3004.187;    1.683;24670.641
349.336; 3065.925;    1.924;24409.111
349.890; 3145.711;    2.314;24177.725
350.444; 3200.171;    1.497;24041.117
350.998; 3291.059;    0.779;23966.352
351.553; 3392.670;    0.853;23894.701
352.107; 3506.818;    1.294;23813.922
352.661; 3615.953;    1.396;23740.139
353.215; 3765.185;    1.484;23687.559
353.770; 3930.910;    1.089;23711.092
354.324; 4107.286;    1.049;23668.881
354.878; 4295.869;    1.224;23576.838
355.432; 4499.370;    1.434;23603.270
355.987; 4721.473;    1.367;23579.992
356.541; 4952.771;    1.234;23601.512
357.095; 5179.348;    0.693;23586.143
357.649; 5410.127;    0.537;23515.674
358.203; 5647.890;    0.763;23591.217
358.758; 5888.060;    1.033;23713.898
359.312; 6114.515;    0.956;23744.121
359.866; 6364.981;    0.922;23830.150
360.420; 6580.729;    0.863;23919.086
360.974; 6773.736;    1.160;24024.520
361.529; 6938.171;    1.667;24066.256
362.083; 7096.518;    1.714;24015.072
362.637; 7199.304;    1.454;23843.332
363.191; 7285.577;    1.277;23686.980
363.745; 7328.303;    1.239;23574.730
364.299; 7363.854;    1.540;23275.020
364.854; 7413.640;    1.793;23004.582
365.408; 7465.154;    1.672;22832.361
365.962; 7534.930;    1.867;22694.938
366.516; 7579.931;    1.912;22598.512
367.070; 7619.277;    2.243;22514.027
367.624; 7647.713;    2.447;22414.686
368.178; 7710.672;    2.469;22382.342
368.733; 7686.976;    2.214;22190.098
369.287; 7651.946;    2.070;21957.773
369.841; 7559.255;    2.169;21666.898
370.395; 7473.429;    2.696;21434.756
370.949; 7367.218;    2.530;21176.719
371.503; 7247.720;    2.272;20857.873
372.057; 7112.446;    2.347;20664.771
372.611; 6997.017;    2.583;20616.932
373.165; 6861.026;    2.980;20522.125
373.719; 6751.604;    2.860;20495.113
374.273; 6646.454;    2.349;20506.424
374.827; 6590.551;    2.120;20575.273
375.381; 6505.842;    2.134;20700.756
375.935; 6401.597;    2.203;20870.318
376.489; 6358.971;    2.386;21010.650
377.043; 6312.648;    2.034;21245.135
377.597; 6248.949;    1.577;21402.420
378.151; 6199.496;    1.196;21493.182
378.705; 6114.233;    1.479;21569.070
379.259; 6047.348;    1.754;21522.289
379.813; 5998.620;    1.423;21474.793
380.367; 5925.136;    0.873;21484.975
380.921; 5875.563;    0.797;21414.805
381.475; 5828.055;    1.229;21378.598
382.029; 5761.345;    1.902;21284.203
382.583; 5703.804;    1.850;21271.482
383.137; 5641.601;    1.359;21301.518
383.691; 5570.014;    1.177;21300.807
384.245; 5493.451;    1.234;21209.238
384.799; 5408.514;    1.590;21174.924
385.353; 5302.466;    1.592;21108.598
385.907; 5208.997;    1.316;21192.297
386.461; 5105.013;    1.083;21215.785
387.015; 5017.991;    1.360;21203.338
387.569; 4915.213;    1.889;21174.619
388.122; 4797.039;    2.104;21097.770
388.676; 4662.931;    1.903;21012.865
389.230; 4544.647;    1.553;20967.229
389.784; 4431.546;    1.410;20923.844
390.338; 4326.953;    1.933;20870.760
390.892; 4197.697;    1.982;20801.979
391.446; 4088.815;    1.653;20746.834
391.999; 4000.937;    1.459;20785.510
392.553; 3932.100;    1.220;20842.127
393.107; 3889.727;    1.697;20918.428
393.661; 3845.154;    2.186;20928.527
394.215; 3774.765;    2.016;20849.471
394.768; 3724.639;    1.859;20884.371
395.322; 3693.609;    1.867;20896.906
395.876; 3652.768;    2.114;20921.127
396.430; 3613.999;    2.769;20898.637
396.984; 3535.831;    2.666;20817.242
397.537; 3456.587;    2.269;20688.838
398.091; 3404.231;    1.972;20699.154
398.645; 3361.404;    2.234;20627.068
399.198; 3283.640;    2.689;20504.336
399.752; 3202.977;    2.704;20371.180
400.306; 3121.649;    2.034;20250.672
400.860; 3059.326;    1.823;20129.586
401.413; 2999.921;    1.749;20069.705
401.967; 2954.658;    2.179;19988.576
402.521; 2899.390;    2.394;19907.193
403.074; 2855.186;    2.083;19895.150
403.628; 2821.786;    1.956;19857.600
404.182; 2788.906;    1.919;19800.021
404.735; 2747.319;    2.024;19732.807
405.289; 2713.088;    2.382;19662.846
405.843; 2674.342;    2.070;19524.451
406.396; 2633.146;    1.782;19413.264
406.950; 2599.094;    1.594;19221.857
407.503; 2569.224;    1.399;18984.822
408.057; 2525.501;    1.927;18753.191
408.611; 2485.731;    1.907;18601.270
409.164; 2455.386;    1.660;18458.930
409.718; 2415.378;    1.399;18288.682
410.271; 2372.796;    1.146;18133.148
410.825; 2324.147;    1.410;18012.455
411.378; 2265.399;    1.899;17928.895
411.932; 2219.433;    1.537;17856.725
412.485; 2187.085;    1.200;17696.875
413.039; 2143.725;    1.014;17527.594
413.592; 2099.667;    1.517;17508.240
414.146; 2054.929;    2.139;17459.979
414.699; 2013.741;    2.102;17396.783
415.253; 1972.329;    1.862;17302.285
415.806; 1944.693;    1.943;17208.291
416.360; 1903.105;    2.102;17176.025
416.913; 1852.762;    2.394;17166.963
417.466; 1825.923;    2.573;17054.414
418.020; 1814.732;    2.026;17014.334
418.573; 1807.724;    1.532;17029.051
419.127; 1829.178;    1.297;17176.988
419.680; 1871.162;    1.624;17421.408
420.233; 1930.207;    1.959;17641.104
420.787; 2009.996;    1.922;17828.533
421.340; 2082.865;    1.173;18077.789
421.894; 2161.234;    1.093;18257.363
422.447; 2258.565;    1.720;18406.648
423.000; 2346.168;    2.184;18408.650
423.553; 2423.741;    1.816;18379.383
424.107; 2521.463;    1.613;18282.965
424.660; 2619.855;    1.514;18085.246
425.213; 2711.332;    1.934;17834.660
425.767; 2818.413;    2.327;17649.459
426.320; 2938.826;    2.252;17452.555
426.873; 3051.793;    1.960;17170.824
427.426; 3182.557;    1.932;16950.828
427.980; 3327.647;    2.239;16857.219
428.533; 3448.232;    2.722;16754.145
429.086; 3570.759;    2.900;16615.451
429.639; 3690.374;    2.762;16493.891
430.192; 3787.241;    2.344;16340.891
430.746; 3883.857;    2.006;16243.344
431.299; 3964.767;    2.322;16024.472
431.852; 4017.542;    2.293;15833.229
432.405; 4090.880;    1.854;15705.715
432.958; 4167.066;    1.516;15577.941
433.511; 4244.044;    1.394;15405.151
434.064; 4333.537;    1.970;15264.161
434.618; 4439.147;    2.657;15210.028
435.171; 4541.261;    2.524;15236.144
435.724; 4641.760;    2.299;15147.426
436.277; 4758.314;    2.116;15147.960
436.830; 4885.073;    2.199;15154.341
437.383; 4998.613;    2.389;15153.959
437.936; 5123.298;    2.160;15213.801
438.489; 5264.227;    1.732;15315.050
439.042; 5424.684;    1.554;15404.146
439.595; 5577.868;    1.406;15457.778
440.148; 5752.185;    2.030;15557.823
440.701; 5896.297;    2.400;15696.485
441.254; 6034.052;    2.054;15775.416
441.807; 6152.394;    1.649;15859.172
442.360; 6251.163;    1.599;15981.597
442.913; 6354.567;    1.869;16110.760
443.466; 6450.650;    2.222;16298.816
444.018; 6519.250;    1.820;16424.895
444.571; 6618.182;    1.292;16585.398
445.124; 6751.569;    1.276;16878.648
445.677; 6944.743;    1.923;17229.840
446.230; 7149.136;    2.504;17594.146
446.783; 7377.388;    2.380;18064.014
447.336; 7676.128;    2.113;18674.588
447.888; 8007.516;    1.829;19301.225
448.441; 8395.098;    1.942;20007.875
448.994; 8814.012;    2.613;20734.004
449.547; 9224.935;    2.213;21495.510
450.099; 9654.719;    1.696;22254.613
450.652;10061.785;    1.496;22895.506
451.205;10434.030;    1.327;23460.619
451.758;10821.718;    2.059;24134.697
452.310;11117.294;    2.246;24729.506
452.863;11353.047;    1.922;25201.469
453.416;11524.137;    1.686;25500.367
453.968;11668.164;    1.369;25802.340
454.521;11768.653;    1.574;26090.832
455.074;11868.708;    2.090;26478.313
455.626;11901.815;    1.527;26716.381
456.179;11954.044;    1.156;26966.133
456.732;12020.662;    0.914;27342.787
457.284;12112.409;    1.274;27745.297
457.837;12239.285;    1.703;28049.557
458.389;12378.918;    1.747;28410.693
458.942;12509.876;    1.820;28558.881
459.494;12646.653;    1.866;28850.662
460.047;12806.675;    1.937;29184.119
460.599;12977.733;    2.434;29409.664
461.152;13121.933;    2.716;29662.150
461.704;13211.153;    2.786;29898.029
462.257;13279.239;    2.439;30135.412
462.809;13335.096;    1.800;30426.805
463.362;13386.712;    2.139;30624.643
463.914;13399.901;    2.703;30758.453
464.467;13361.499;    2.336;30871.873
465.019;13341.423;    1.807;30990.223
465.571;13283.725;    1.520;31090.037
466.124;13254.643;    1.813;31254.561
466.676;13191.636;    2.386;31373.615
467.229;13108.761;    2.237;31392.443
467.781;13017.481;    1.743;31415.758
468.333;12939.796;    1.543;31539.332
468.885;12828.347;    1.457;31655.814
469.438;12719.650;    1.712;31748.795
469.990;12610.089;    1.772;31751.547
470.542;12520.594;    1.347;31918.857
471.095;12436.139;    1.120;32155.582
471.647;12374.443;    1.322;32421.803
472.199;12300.304;    1.853;32546.111
472.751;12256.994;    2.572;32718.479
473.303;12228.340;    2.549;33041.320
473.856;12215.538;    2.516;33350.652
474.408;12164.701;    2.353;33585.246
474.960;12128.625;    2.633;33910.680
475.512;12086.579;    2.804;34154.949
476.064;12068.519;    2.573;34539.535
476.616;12044.062;    2.134;34967.367
477.168;12044.906;    1.953;35302.965
477.720;12016.217;    2.009;35659.094
478.272;12047.847;    2.733;35952.043
478.824;12048.075;    2.703;36127.410
479.376;12031.962;    2.282;36288.531
479.928;11985.448;    1.819;36305.574
480.480;11912.741;    1.867;36193.648
481.032;11809.832;    2.503;36139.602
481.584;11672.927;    2.677;35989.031
482.136;11492.076;    2.369;35870.645
482.688;11296.495;    1.929;35665.895
483.240;11127.010;    2.156;35556.148
483.792;10938.576;    2.893;35552.098
484.344;10771.473;    2.843;35478.727
484.896;10607.231;    2.297;35413.402
485.448;10439.478;    1.614;35332.148
485.999;10288.023;    1.312;35335.699
486.551;10198.677;    2.014;35424.953
487.103;10080.346;    2.332;35449.473
487.655; 9998.804;    2.017;35367.098
488.207; 9904.895;    1.869;35367.191
488.758; 9810.686;    1.843;35219.875
489.310; 9761.924;    2.244;35051.664
489.862; 9722.346;    2.786;34840.652
490.414; 9631.095;    2.760;34534.398
490.965; 9553.854;    2.762;34138.566
491.517; 9428.153;    2.729;33744.191
492.069; 9282.306;    2.702;33286.777
492.620; 9120.844;    2.850;32785.492
493.172; 8916.571;    3.092;32180.316
493.724; 8664.206;    2.614;31491.195
494.275; 8409.417;    2.122;30783.773
494.827; 8143.557;    1.743;30114.309
495.378; 7881.457;    2.044;29348.791
495.930; 7611.948;    2.550;28638.299
496.481; 7339.477;    2.702;27875.699
497.033; 7086.479;    2.303;27266.074
497.584; 6865.814;    2.249;26717.234
498.136; 6684.667;    3.017;26180.563
498.687; 6476.836;    3.606;25583.523
499.239; 6275.553;    3.493;25109.701
499.790; 6103.402;    3.153;24652.186
500.342; 5938.421;    2.799;24273.920
500.893; 5787.774;    3.027;23856.111
501.444; 5643.122;    3.447;23441.369
501.996; 5488.278;    2.983;23114.922
502.547; 5371.314;    2.526;22823.727
503.098; 5365.843;    3.136;22486.547
503.650; 5302.529;    3.196;22118.588
504.201; 5242.175;    3.617;21869.178
504.752; 5175.954;    3.916;21635.783
505.303; 5116.557;    3.617;21420.023
505.855; 5048.673;    3.219;21200.555
506.406; 4998.994;    2.917;20947.488
506.957; 4867.200;    2.223;20790.715
507.508; 4804.945;    2.282;20601.246
508.060; 4743.291;    2.087;20310.139
508.611; 4672.961;    1.549;20053.422
509.162; 4588.413;    1.139;19639.668
509.713; 4521.896;    1.310;19256.934
510.264; 4447.861;    1.830;18995.607
510.815; 4389.557;    1.987;18766.771
511.366; 4335.352;    1.833;18538.787
511.917; 4303.613;    1.559;18376.559
512.468; 4287.637;    1.662;18184.379
513.019; 4300.218;    2.434;18075.482
513.570; 4305.689;    2.582;17912.895
514.121; 4312.381;    2.273;17685.191
514.672; 4335.693;    1.946;17464.381
515.223; 4372.272;    1.840;17317.418
515.774; 4429.900;    2.246;17190.230
516.325; 4489.127;    2.597;17064.516
516.876; 4543.069;    2.137;16972.088
517.427; 4623.147;    1.897;16852.500
517.977; 4726.601;    1.684;16829.553
518.528; 4828.172;    1.913;16766.789
519.079; 4936.899;    2.636;16643.695
519.630; 5036.004;    2.637;16517.559
520.181; 5150.585;    2.292;16393.189
520.731; 5289.617;    2.093;16230.644
521.282; 5417.912;    2.262;16145.105
521.833; 5540.030;    2.833;15953.990
522.384; 5664.995;    3.003;15736.516
522.934; 5771.231;    2.524;15565.753
523.485; 5868.666;    2.183;15287.285
524.036; 5970.584;    2.237;15035.617
524.586; 6060.707;    2.803;14812.778
525.137; 6128.523;    2.873;14528.730
525.687; 6199.138;    2.540;14334.950
526.238; 6263.490;    1.984;14182.572
526.788; 6317.682;    1.686;13979.543
527.339; 6387.415;    1.906;13912.451
527.889; 6436.849;    2.084;13840.368
528.440; 6464.360;    1.917;13741.925
528.990; 6523.122;    1.562;13694.818
529.541; 6574.412;    1.103;13649.667
530.091; 6643.029;    1.544;13573.315
530.642; 6719.411;    1.986;13536.518
531.192; 6769.873;    1.922;13433.861
531.742; 6835.367;    1.774;13329.195
532.293; 6907.444;    1.506;13240.494
532.843; 6986.116;    1.989;13155.667
533.393; 7073.112;    3.007;13067.846
533.944; 7117.261;    3.190;12937.999
534.494; 7154.970;    2.904;12841.794
535.044; 7220.388;    2.793;12827.269
535.594; 7262.015;    2.776;12724.246
536.145; 7322.332;    3.426;12705.307
536.695; 7317.813;    3.626;12650.707
537.245; 7287.065;    3.290;12536.481
537.795; 7233.436;    2.870;12405.452
538.345; 7163.625;    2.602;12205.625
538.895; 7070.788;    2.696;11973.585
539.445; 7007.706;    3.359;11850.345
539.995; 6905.088;    3.229;11644.610
540.546; 6813.024;    2.790;11454.025
541.096; 6719.937;    2.564;11253.143
541.646; 6675.575;    2.876;11160.063
542.196; 6631.908;    3.986;11117.994
542.745; 6588.639;    4.383;10992.626
543.295; 6519.301;    3.679;10818.802
543.845; 6469.710;    3.020;10664.616
544.395; 6460.728;    3.157;10537.937
544.945; 6456.867;    3.542;10437.008
545.495; 6448.553;    3.429;10312.914
546.045; 6469.776;    2.642;10157.087
546.595; 6553.141;    2.114;10132.882
547.144; 6627.913;    1.857;10129.313
547.694; 6715.043;    2.146;10071.276
548.244; 6883.812;    2.586;10157.261
548.794; 7039.858;    2.499;10213.468
549.343; 7198.727;    2.292;10254.829
549.893; 7389.245;    2.319;10309.021
550.443; 7532.096;    2.772;10297.742
550.992; 7722.677;    3.576;10341.335
551.542; 7886.319;    3.669;10400.935
552.092; 7946.301;    2.873;10295.830
552.641; 8013.927;    2.409;10220.709
553.191; 8048.409;    2.432;10088.492
553.740; 8014.199;    2.596; 9981.619
554.290; 7968.129;    2.409; 9879.782
554.839; 7864.523;    1.797; 9732.347
555.389; 7745.438;    1.489; 9579.819
555.938; 7632.073;    1.624; 9448.642
556.488; 7541.463;    2.280; 9380.240
557.037; 7442.316;    2.792; 9306.070
557.587; 7347.351;    2.614; 9193.501
558.136; 7261.890;    2.304; 9074.878
558.685; 7201.032;    2.067; 8978.863
559.235; 7189.643;    2.554; 8970.063
559.784; 7163.237;    2.873; 8935.447
560.333; 7107.834;    2.320; 8842.257
560.882; 7079.108;    1.557; 8798.376
561.432; 7112.073;    2.362; 8811.530
561.981; 7117.893;    3.004; 8832.772
562.530; 7111.765;    3.846; 8854.897
563.079; 7078.317;    3.802; 8845.270
563.628; 7087.290;    3.680; 8890.656
564.177; 7085.431;    3.587; 8926.356
564.727; 7073.568;    3.702; 8930.638
565.276; 7027.231;    3.030; 8935.100
565.825; 7002.972;    2.650; 8923.014
566.374; 6993.175;    2.376; 8880.985
566.923; 6988.862;    1.913; 8842.500
567.472; 6960.136;    1.547; 8767.553
568.021; 6960.128;    1.879; 8729.559
568.570; 6971.848;    2.146; 8743.938
569.118; 6978.956;    1.980; 8718.981
569.667; 7004.960;    1.466; 8718.521
570.216; 7025.813;    1.053; 8738.259
570.765; 7058.762;    1.536; 8729.440
571.314; 7085.529;    1.957; 8677.952
571.863; 7106.780;    1.730; 8637.989
572.412; 7142.032;    1.516; 8576.199
572.960; 7208.533;    1.499; 8565.977
573.509; 7281.904;    2.052; 8576.002
574.058; 7362.798;    2.622; 8564.113
574.606; 7433.780;    2.579; 8566.061
575.155; 7506.406;    2.123; 8557.312
575.704; 7601.877;    2.007; 8559.807
576.252; 7724.030;    2.043; 8606.314
576.801; 7815.505;    2.240; 8616.514
577.349; 7928.234;    2.630; 8592.634
577.898; 8054.097;    2.533; 8606.127
578.447; 8167.997;    2.204; 8612.758
578.995; 8324.561;    2.262; 8671.027
579.543; 8475.349;    2.560; 8692.212
580.092; 8598.983;    2.830; 8705.449
580.640; 8736.098;    2.753; 8701.837
581.189; 8858.121;    2.173; 8714.320
581.737; 8985.677;    1.720; 8741.893
582.286; 9139.115;    2.182; 8766.525
582.834; 9288.011;    2.827; 8813.563
583.382; 9433.204;    2.799; 8908.095
583.930; 9591.378;    2.554; 8984.256
584.479; 9759.933;    2.374; 9092.036
585.027; 9914.977;    2.482; 9187.023
585.575;10076.326;    2.706; 9277.856
586.123;10262.130;    2.640; 9419.933
586.671;10450.029;    2.320; 9590.307
587.220;10648.834;    2.210; 9733.620
587.768;10818.530;    1.994; 9897.634
588.316;11020.035;    2.263;10096.534
588.864;11223.718;    2.514;10316.001
589.412;11416.214;    2.584;10561.078
589.960;11572.783;    2.170;10715.612
590.508;11713.505;    2.039;10852.594
591.056;11883.969;    2.652;11023.095
591.604;12088.750;    3.446;11256.100
592.152;12215.310;    3.357;11426.526
592.700;12335.463;    2.952;11630.218
593.247;12459.059;    2.499;11816.598
593.795;12587.306;    2.757;12038.872
594.343;12704.710;    3.304;12177.236
594.891;12785.047;    3.064;12294.479
595.439;12786.944;    2.414;12302.669
595.986;12835.206;    2.230;12362.772
596.534;12886.254;    2.402;12379.223
597.082;12904.195;    3.080;12393.918
597.629;12927.293;    3.019;12443.362
598.177;12931.983;    2.442;12502.169
598.725;12920.606;    1.872;12569.535
599.272;12962.404;    1.832;12688.868
599.820;12970.994;    2.059;12764.727
600.367;12971.420;    2.407;12818.869
600.915;12979.092;    2.230;12846.904
601.462;12990.980;    2.030;12878.114
602.010;13018.717;    2.004;12918.974
602.557;13040.991;    2.186;12958.457
603.105;13063.092;    2.450;12968.645
603.652;13096.593;    2.244;12953.086
604.199;13148.232;    1.716;12991.679
604.747;13237.454;    1.426;13065.749
605.294;13321.922;    1.613;13149.854
605.841;13401.015;    2.009;13196.427
606.389;13495.651;    2.289;13229.990
606.936;13631.088;    2.389;13281.705
607.483;13791.672;    2.473;13366.182
608.030;13965.764;    2.593;13450.556
608.577;14122.599;    3.089;13503.925
609.124;14293.494;    3.414;13530.827
609.671;14475.046;    3.263;13531.775
610.219;14713.786;    3.124;13586.985
610.766;14961.516;    3.076;13652.589
611.313;15185.557;    3.359;13696.247
611.860;15393.639;    3.696;13691.382
612.407;15628.096;    3.402;13744.073
612.953;15887.302;    3.094;13803.055
613.500;16173.921;    2.687;13963.831
614.047;16422.251;    2.676;14088.208
614.594;16621.642;    2.943;14153.533
615.141;16862.890;    2.934;14289.390
615.688;17112.699;    2.662;14392.395
616.234;17335.236;    2.352;14383.341
616.781;17523.858;    2.427;14404.511
617.328;17698.702;    3.026;14463.528
617.875;17840.307;    3.217;14430.008
618.421;17996.027;    2.823;14425.002
618.968;18114.257;    2.467;14403.573
619.515;18228.522;    2.446;14453.614
620.061;18283.786;    2.966;14456.558
620.608;18307.373;    3.190;14439.548
621.154;18358.035;    3.072;14490.834
621.701;18404.953;    2.693;14596.449
622.247;18401.779;    2.407;14643.035
622.794;18370.569;    2.492;14610.465
623.340;18287.423;    2.562;14561.553
623.886;18242.312;    2.234;14674.229
624.433;18169.678;    1.856;14771.703
624.979;18051.386;    1.497;14855.765
625.525;17892.805;    1.456;14879.796
626.072;17759.398;    1.993;15013.922
626.618;17615.155;    2.237;15086.968
627.164;17502.664;    2.179;15216.661
627.710;17346.017;    1.949;15272.576
628.256;17197.501;    1.902;15347.232
628.803;17011.375;    2.222;15288.673
629.349;16865.245;    2.703;15327.968
629.895;16697.068;    2.340;15302.955
630.441;16527.509;    2.077;15384.949
630.987;16325.699;    1.966;15428.438
631.533;16149.547;    2.394;15510.812
632.079;15959.426;    2.679;15478.526
632.625;15786.211;    2.392;15503.278
633.171;15626.844;    1.999;15515.245
633.717;15486.664;    1.983;15583.961
634.262;15348.555;    1.926;15637.299
634.808;15217.052;    2.134;15604.214
635.354;15117.979;    1.967;15582.511
635.900;15052.598;    1.794;15660.251
636.446;15005.314;    1.794;15695.133
636.991;14943.658;    1.982;15665.549
637.537;14874.001;    2.374;15658.527
638.083;14823.339;    2.630;15671.771
638.628;14765.687;    2.392;15669.538
639.174;14742.682;    2.177;15634.639
639.719;14714.593;    2.007;15602.901
640.265;14702.892;    2.457;15666.940
640.810;14711.411;    2.746;15761.846
641.356;14739.496;    2.499;15785.044
641.901;14782.866;    2.143;15793.367
642.447;14890.953;    2.082;15886.419
642.992;14957.021;    2.392;15948.362
643.538;15113.083;    3.356;16007.633
644.083;15244.674;    3.243;16007.868
644.628;15368.662;    2.600;16026.446
645.173;15510.866;    2.316;16060.482
645.719;15647.482;    2.584;16029.560
646.264;15786.915;    3.014;16035.871
646.809;15951.487;    3.140;16053.347
647.354;16072.265;    2.349;16064.777
647.899;16241.085;    1.969;16042.783
648.444;16467.847;    1.912;15987.191
648.989;16679.005;    2.267;15911.073
649.535;16913.103;    2.157;15936.846
650.080;17164.549;    1.782;15929.212
650.625;17427.592;    1.302;15901.366
651.169;17765.519;    1.397;15894.328
651.714;18104.712;    1.806;15915.406
652.259;18446.356;    2.502;16022.624
652.804;18798.276;    2.607;16059.087
653.349;19150.313;    2.584;16004.739
653.894;19514.962;    2.593;16000.641
654.438;19883.342;    3.023;16002.390
654.983;20235.161;    3.520;15978.784
655.528;20559.092;    3.599;15956.043
656.073;20847.490;    2.980;15884.135
656.617;21150.286;    2.600;15902.928
657.162;21405.722;    2.557;15918.126
657.706;21584.976;    2.927;15854.354
658.251;21719.873;    2.997;15830.059
658.796;21818.248;    2.983;15816.769
659.340;21880.079;    2.740;15742.755
659.884;21922.348;    2.739;15715.711
660.429;22014.953;    3.174;15745.523
660.973;22052.712;    3.514;15749.963
661.518;22094.200;    3.137;15801.950
662.062;22134.434;    2.634;15809.180
662.606;22155.962;    1.940;15850.870
663.151;22178.811;    2.006;15947.389
663.695;22244.344;    2.777;16038.801
664.239;22125.083;    2.532;15946.139
664.783;22032.892;    2.046;15888.099
665.327;21940.545;    1.842;15830.063
665.871;21806.877;    1.917;15788.773
666.416;21602.639;    2.292;15663.833
666.960;21427.213;    2.416;15634.777
667.504;21161.178;    1.692;15510.952
668.048;20970.288;    1.454;15518.514
668.592;20799.858;    1.650;15600.340
669.135;20663.290;    2.409;15620.888
669.679;20487.240;    2.786;15632.665
670.223;20310.291;    2.417;15703.724
670.767;20111.698;    2.076;15668.647
671.311;19915.240;    2.050;15688.210
671.855;19729.722;    2.456;15709.610
672.398;19561.593;    2.780;15689.408
672.942;19307.473;    2.412;15629.038
673.486;19117.842;    2.242;15575.172
674.029;18972.704;    2.190;15575.683
674.573;18827.316;    2.436;15606.302
675.117;18690.657;    2.932;15572.540
675.660;18536.865;    2.576;15512.987
676.204;18378.871;    2.172;15447.049
676.747;18294.724;    1.907;15501.265
677.291;18221.363;    1.782;15547.051
677.834;18122.556;    2.164;15502.416
678.377;18052.066;    2.104;15476.438
678.921;17997.414;    1.629;15443.263
679.464;17996.355;    1.402;15475.839
680.007;18013.853;    1.356;15534.808
680.551;18005.437;    1.544;15511.611
681.094;18041.666;    1.923;15564.133
681.637;18098.998;    1.787;15591.499
682.180;18138.993;    1.574;15584.659
682.723;18215.941;    1.526;15632.621
683.266;18281.383;    1.853;15626.680
683.809;18325.828;    2.160;15535.618
684.352;18421.818;    2.846;15460.701
684.895;18513.537;    2.543;15372.903
685.438;18599.243;    2.252;15363.421
685.981;18679.992;    2.463;15345.217
686.524;18764.489;    3.100;15310.160
687.067;18850.242;    3.309;15293.864
687.610;18965.430;    3.166;15416.497
688.153;19041.861;    2.349;15483.719
688.695;19060.947;    2.277;15442.604
689.238;19120.335;    2.782;15413.378
689.781;19177.035;    2.836;15336.210
690.324;19210.973;    2.353;15302.956
690.866;19184.617;    1.977;15226.162
691.409;19165.466;    1.613;15157.224
691.951;19138.283;    1.826;15161.359
692.494;19114.159;    2.156;15187.062
693.036;19027.050;    1.789;15111.805
693.579;18969.560;    1.513;15160.040
694.121;18875.882;    1.619;15132.405
694.664;18816.942;    2.032;15159.161
695.206;18666.944;    2.602;15062.693
695.748;18520.477;    2.546;15012.453
696.291;18359.933;    2.267;15024.275
696.833;18160.766;    2.036;15064.395
697.375;17904.819;    2.289;15062.055
697.917;17594.382;    2.590;15077.546
698.459;17227.364;    2.312;15037.439
699.002;16869.578;    1.937;14989.411
699.544;16485.554;    1.872;14960.681
700.086;16115.468;    1.957;14965.402
700.628;15713.858;    2.467;14900.413
701.170;15290.350;    2.449;14795.727
701.712;14895.026;    2.190;14744.772
702.253;14490.527;    1.957;14682.530
702.795;14099.693;    1.899;14711.564
703.337;13674.132;    2.016;14634.118
703.879;13237.945;    2.284;14582.423
704.421;12842.653;    2.186;14617.363
704.963;12455.142;    1.830;14650.117
705.504;12074.789;    1.487;14626.514
706.046;11717.405;    2.003;14632.384
706.588;11372.044;    2.572;14612.898
707.129;11012.127;    2.750;14565.570
707.671;10652.354;    2.519;14476.845
708.212;10321.398;    2.182;14470.286
708.754; 9984.351;    2.380;14468.057
709.295; 9629.211;    2.869;14392.811
709.837; 9302.907;    2.890;14401.028
710.378; 8997.136;    2.730;14446.511
710.919; 8708.978;    2.319;14481.081
711.461; 8417.585;    2.236;14446.314
712.002; 8130.905;    2.807;14375.581
712.543; 7867.378;    2.989;14315.593
713.084; 7658.609;    2.833;14346.548
713.626; 7447.243;    2.524;14316.675
714.167; 7218.909;    2.072;14243.851
714.708; 7023.529;    2.399;14267.479
715.249; 6843.678;    2.822;14278.298
715.790; 6658.113;    2.367;14261.066
716.331; 6485.125;    2.172;14187.708
716.872; 6298.155;    1.972;14144.852
717.413; 6139.284;    2.187;14123.713
717.954; 5984.343;    2.839;14083.258
718.495; 5822.657;    2.909;13999.944
719.035; 5671.503;    2.410;13954.055
719.576; 5535.686;    2.276;13874.045
720.117; 5494.661;    3.299;13899.501
720.658; 5407.071;    3.954;13882.108
721.198; 5301.016;    3.967;13863.268
721.739; 5211.629;    3.656;13814.367
722.280; 5129.538;    3.264;13754.547
722.820; 5048.965;    3.363;13715.160
723.361; 4977.397;    3.679;13716.846
723.901; 4839.053;    3.009;13621.667
724.442; 4759.762;    2.462;13566.585
724.982; 4694.929;    2.070;13526.836
725.522; 4618.558;    1.613;13504.456
726.063; 4570.908;    1.980;13495.322
726.603; 4538.260;    2.486;13505.397
727.143; 4494.643;    2.619;13466.742
727.684; 4437.733;    2.284;13472.352
728.224; 4388.474;    1.947;13488.968
728.764; 4338.383;    1.983;13426.033
729.304; 4317.791;    2.676;13414.030
729.844; 4278.636;    2.450;13405.615
730.384; 4266.033;    2.560;13359.819
730.924; 4234.812;    2.257;13288.854
731.464; 4212.870;    2.187;13297.818
732.004; 4207.070;    2.826;13338.804
732.544; 4196.106;    3.259;13393.293
733.084; 4201.632;    3.312;13361.595
733.624; 4210.525;    3.339;13396.611
734.164; 4192.660;    2.569;13525.811
734.703; 4209.973;    2.937;13649.519
735.243; 4231.107;    3.386;13757.006
735.783; 4240.515;    3.172;13814.979
736.322; 4268.504;    2.656;13785.030
736.862; 4278.970;    2.214;13828.038
737.402; 4307.773;    2.287;13863.659
737.941; 4334.970;    2.702;13780.377
738.481; 4378.028;    2.606;13855.856
739.020; 4425.961;    2.306;13816.520
739.559; 4491.800;    2.119;13777.062
740.099; 4562.464;    2.436;13913.428
740.638; 4649.357;    3.017;14062.390
741.177; 4746.423;    3.177;14154.896
741.717; 4827.581;    2.739;14267.431
742.256; 4925.561;    2.564;14320.163
742.795; 5020.593;    2.583;14490.283
743.334; 5134.276;    3.227;14693.954
743.873; 5240.749;    3.609;14814.392
744.413; 5353.252;    3.064;14954.564
744.952; 5436.907;    2.629;15087.706
745.491; 5548.407;    2.609;15247.870
746.030; 5636.782;    2.744;15333.473
746.568; 5723.933;    3.032;15421.932
747.107; 5775.656;    2.457;15425.282
747.646; 5838.035;    1.857;15461.001
748.185; 5898.127;    1.886;15424.616
748.724; 5956.379;    2.136;15409.543
749.262; 6003.399;    2.494;15422.843
749.801; 6050.671;    2.523;15438.714
750.340; 6105.011;    2.072;15445.324
750.878; 6151.991;    1.974;15470.133
751.417; 6179.340;    1.899;15409.932
751.956; 6195.059;    2.144;15469.081
752.494; 6227.791;    2.442;15518.773
753.033; 6245.650;    2.486;15436.924
753.571; 6268.216;    2.482;15434.565
754.109; 6257.622;    2.423;15360.589
754.648; 6253.220;    2.797;15347.497
755.186; 6246.752;    3.433;15440.093
755.724; 6199.698;    3.326;15381.480
756.262; 6169.987;    3.226;15310.285
756.801; 6121.062;    2.814;15331.999
757.339; 6031.222;    2.713;15356.514
757.877; 5956.493;    3.390;15353.514
758.415; 5854.051;    3.419;15248.125
758.953; 5734.428;    3.107;15072.784
759.491; 5626.251;    2.869;14999.804
760.029; 5478.175;    2.734;14971.495
760.567; 5355.089;    3.140;14942.096
761.105; 5225.031;    3.253;14756.183
761.643; 5079.971;    2.600;14588.907
762.180; 4947.187;    2.230;14513.956
762.718; 4844.483;    2.192;14470.747
763.256; 4733.545;    2.620;14446.393
763.793; 4614.272;    2.764;14369.944
764.331; 4484.367;    2.552;14255.685
764.869; 4373.776;    2.227;14284.699
765.406; 4262.402;    2.396;14268.366
765.944; 4152.895;    2.787;14263.428
766.481; 4021.399;    3.133;14239.317
767.019; 3905.033;    3.004;14127.480
767.556; 3796.319;    2.776;14039.040
768.093; 3694.832;    2.680;14020.798
768.631; 3586.275;    2.874;13908.893
769.168; 3485.259;    3.304;13795.049
769.705; 3382.241;    3.347;13691.870
770.242; 3297.244;    3.116;13649.803
770.780; 3200.180;    2.463;13592.196
771.317; 3119.005;    2.484;13550.262
771.854; 3036.422;    2.893;13471.947
772.391; 2954.328;    3.210;13412.892
772.928; 2886.621;    3.043;13429.147
773.465; 2811.920;    2.440;13398.306
774.002; 2728.521;    2.127;13309.387
774.538; 2657.609;    2.679;13241.401
775.075; 2582.030;    3.146;13118.635
775.612; 2519.230;    3.192;13056.369
776.149; 2476.229;    3.016;13046.695
776.686; 2424.073;    2.640;13010.475
777.222; 2382.629;    3.077;12964.621
777.759; 2336.584;    3.657;12964.174
778.295; 2285.363;    3.682;12902.590
778.832; 2234.710;    3.176;12908.753
779.368; 2224.176;    3.190;12887.800
779.905; 2177.115;    3.086;12854.366
780.441; 2118.914;    3.349;12800.696
780.978; 2064.753;    3.370;12710.366
781.514; 2016.882;    2.994;12596.820
782.050; 1978.566;    2.693;12558.238
782.586; 1944.196;    2.680;12560.412
783.123; 1859.914;    2.544;12485.188
783.659; 1812.903;    2.716;12394.135
784.195; 1775.750;    2.346;12347.384
784.731; 1735.996;    1.792;12288.531
785.267; 1707.412;    1.623;12246.120
785.803; 1675.882;    1.794;12148.918
786.339; 1654.546;    2.076;12033.048
786.875; 1635.910;    1.864;11977.777
787.411; 1633.976;    2.012;11969.930
787.947; 1620.178;    2.074;11939.280
788.482; 1614.068;    2.592;11964.332
789.018; 1592.370;    2.927;11908.042
789.554; 1579.686;    2.974;11907.400
790.090; 1573.900;    2.732;11881.421
790.625; 1563.319;    2.637;11854.802
791.161; 1527.721;    2.250;11783.131
791.696; 1519.068;    2.763;11725.830
792.232; 1508.784;    2.844;11685.956
792.767; 1507.615;    2.777;11690.128
793.303; 1498.768;    2.587;11676.556
793.838; 1480.691;    2.566;11632.534
794.373; 1468.178;    2.773;11560.866
794.909; 1455.022;    2.949;11462.723
795.444; 1438.200;    2.620;11410.744
795.979; 1423.361;    2.289;11314.146
796.514; 1411.221;    1.922;11259.623
797.049; 1407.661;    2.302;11258.978
797.584; 1394.497;    2.630;11238.729
798.119; 1386.533;    2.614;11228.720
798.654; 1392.565;    2.384;11267.354
799.189; 1393.774;    2.320;11243.914
799.724; 1390.481;    2.323;11264.951
800.259; 1393.982;    2.847;11262.826
800.794; 1394.675;    2.907;11200.135
801.329; 1398.685;    2.604;11153.245
801.863; 1401.737;    2.257;11128.419
802.398; 1398.545;    2.324;11081.932
802.933; 1387.496;    2.422;10963.883
803.467; 1387.613;    2.709;10841.859
804.002; 1384.523;    2.387;10741.154
804.536; 1381.884;    1.782;10658.524
805.071; 1390.958;    1.464;10654.964
805.605; 1404.099;    1.962;10629.821
806.139; 1408.413;    2.163;10574.163
806.674; 1434.261;    2.193;10676.176
807.208; 1450.717;    1.947;10711.335
807.742; 1463.600;    1.717;10733.925
808.277; 1484.087;    2.420;10741.487
808.811; 1492.912;    3.082;10734.969
809.345; 1498.743;    3.136;10643.591
809.879; 1520.461;    3.137;10637.672
810.413; 1535.534;    3.059;10587.516
810.947; 1554.919;    3.507;10572.150
811.481; 1584.997;    4.410;10590.169
812.015; 1594.376;    4.270;10612.771
812.549; 1615.685;    3.960;10586.839
813.082; 1645.617;    3.502;10636.075
813.616; 1667.374;    3.253;10620.640
814.150; 1691.159;    3.612;10553.794
814.683; 1718.863;    3.577;10508.280
815.217; 1754.064;    2.820;10483.739
815.751; 1796.628;    2.350;10430.468
816.284; 1831.449;    2.123;10361.859
816.818; 1858.672;    2.576;10252.118
817.351; 1894.959;    2.716;10199.703
817.884; 1923.338;    2.203;10154.906
818.418; 1966.367;    1.812;10126.190
818.951; 1997.800;    1.853;10031.190
819.484; 2042.802;    2.207;10035.844
820.018; 2091.565;    2.510;10014.389
820.551; 2143.397;    2.330;10049.086
821.084; 2199.153;    2.089;10078.036
821.617; 2260.461;    1.786;10089.631
822.150; 2315.086;    1.807;10079.384
822.683; 2370.045;    2.023;10049.619
823.216; 2435.608;    2.194;10002.643
823.749; 2509.722;    2.112;10002.903
824.282; 2578.238;    1.657; 9980.746
824.815; 2670.086;    1.874; 9964.790
825.347; 2754.210;    2.742; 9976.763
825.880; 2840.325;    3.019; 9988.958
826.413; 2930.724;    2.927; 9991.990
826.945; 3011.500;    2.514;10004.600
827.478; 3111.706;    2.552;10010.774
828.011; 3206.396;    3.257; 9967.705
828.543; 3286.354;    3.567; 9964.650
829.075; 3375.268;    3.350; 9938.459
829.608; 3460.624;    2.852; 9883.190
830.140; 3553.586;    2.564; 9901.529
830.673; 3658.069;    2.910; 9853.842
831.205; 3742.349;    3.237; 9780.764
831.737; 3845.988;    2.789; 9791.182
832.269; 3926.227;    2.252; 9696.285
832.801; 4026.472;    1.946; 9624.224
833.333; 4115.805;    2.033; 9577.904
833.865; 4209.836;    2.453; 9547.805
834.397; 4304.352;    2.577; 9523.343
834.929; 4382.396;    2.152; 9487.538
835.461; 4444.172;    2.126; 9365.161
835.993; 4520.198;    1.952; 9320.995
836.525; 4583.058;    2.206; 9308.481
837.057; 4667.374;    2.433; 9301.330
837.588; 4740.444;    2.402; 9277.372
838.120; 4797.302;    1.904; 9287.247
838.652; 4851.498;    1.642; 9355.522
839.183; 4919.395;    1.687; 9499.963
839.715; 4969.494;    2.240; 9580.639
840.246; 4998.544;    2.349; 9587.818
840.778; 5008.909;    2.330; 9564.621
841.309; 5012.645;    2.190; 9532.572
841.840; 4998.395;    2.450; 9519.996
842.372; 4978.092;    3.030; 9483.938
842.903; 4938.164;    3.136; 9441.794
843.434; 4892.757;    2.817; 9357.458
843.965; 4853.807;    2.310; 9319.769
844.496; 4802.459;    2.152; 9343.974
845.028; 4766.008;    2.639; 9396.660
845.559; 4726.640;    2.982; 9448.116
846.090; 4667.160;    2.784; 9452.687
846.620; 4606.037;    2.610; 9469.329
847.151; 4558.898;    2.837; 9519.497
847.682; 4499.125;    3.353; 9538.660
848.213; 4420.054;    3.534; 9525.329
848.744; 4313.341;    3.037; 9454.759
849.274; 4209.272;    2.373; 9379.308
849.805; 4127.925;    2.110; 9345.937
850.336; 4048.301;    2.430; 9311.855
850.866; 3943.195;    2.506; 9258.625
851.397; 3844.589;    2.189; 9260.577
851.927; 3768.286;    2.016; 9276.317
852.457; 3687.965;    1.852; 9306.553
852.988; 3607.534;    2.086; 9343.456
853.518; 3526.193;    2.549; 9353.948
854.048; 3439.913;    2.479; 9359.599
854.578; 3368.273;    2.274; 9405.596
855.109; 3309.255;    2.157; 9455.482
855.639; 3245.642;    2.010; 9469.054
856.169; 3192.413;    2.692; 9465.776
856.699; 3132.760;    3.046; 9451.917
857.229; 3070.502;    2.664; 9472.702
857.759; 3014.666;    2.403; 9458.188
858.289; 2964.859;    2.152; 9485.961
858.818; 2922.263;    2.507; 9528.114
859.348; 2867.779;    3.049; 9546.704
859.878; 2799.607;    2.714; 9543.730
860.408; 2747.989;    2.349; 9536.490
860.937; 2695.792;    2.439; 9497.186
861.467; 2649.678;    2.607; 9544.058
861.996; 2597.871;    3.050; 9520.332
862.526; 2540.787;    3.059; 9454.146
863.055; 2509.222;    2.804; 9499.622
863.585; 2477.781;    2.524; 9562.398
864.114; 2437.681;    2.357; 9587.175
864.643; 2405.296;    2.579; 9636.829
865.172; 2370.450;    2.674; 9660.092
865.702; 2351.198;    2.556; 9710.460
866.231; 2315.345;    2.096; 9756.873
866.760; 2273.652;    1.799; 9743.839
867.289; 2249.896;    2.307; 9755.036
867.818; 2233.986;    2.893; 9798.701
868.347; 2210.902;    2.700; 9825.833
868.876; 2182.805;    2.447; 9763.459
869.404; 2148.222;    1.980; 9737.922
869.933; 2124.103;    2.170; 9749.092
870.462; 2102.670;    2.723; 9793.668
870.991; 2097.699;    2.579; 9825.379
871.519; 2084.788;    2.239; 9886.887
872.048; 2070.997;    1.832; 9926.965
872.576; 2064.536;    1.757;10010.485
873.105; 2058.010;    2.226;10093.502
873.633; 2061.638;    2.629;10152.345
874.162; 2055.439;    2.180;10161.448
874.690; 2027.230;    1.759;10158.586
875.218; 2012.543;    1.462;10201.747
875.747; 2020.040;    2.067;10279.081
876.275; 2021.218;    2.576;10329.214
876.803; 2024.261;    2.683;10383.697
877.331; 2007.851;    2.096;10420.604
877.859; 2005.503;    1.849;10509.329
878.387; 2004.343;    2.222;10576.276
878.915; 2011.285;    2.842;10608.576
879.443; 1998.812;    2.752;10629.683
879.971; 1992.497;    2.447;10692.274
880.499; 1992.920;    2.079;10719.518
881.026; 2000.696;    2.347;10744.923
881.554; 2009.336;    3.103;10802.524
882.082; 2012.111;    2.962;10885.666
882.609; 2004.065;    2.556;10909.366
883.137; 2040.993;    2.903;10963.422
883.664; 2060.712;    2.989;11019.947
884.192; 2059.269;    3.380;11062.679
884.719; 2069.074;    3.577;11131.102
885.247; 2074.595;    3.287;11120.031
885.774; 2085.925;    3.103;11084.284
886.301; 2094.149;    2.832;11082.367
886.828; 2075.839;    2.439;11090.191
887.355; 2075.225;    2.522;11124.687
887.883; 2083.361;    2.340;11175.243
888.410; 2079.305;    1.873;11167.918
888.937; 2086.671;    1.709;11204.269
889.463; 2105.880;    2.000;11296.452
889.990; 2129.816;    2.764;11394.532
890.517; 2152.115;    3.017;11431.953
891.044; 2169.623;    2.646;11448.239
891.571; 2194.749;    2.276;11519.228
892.097; 2221.206;    2.307;11606.510
892.624; 2253.712;    2.804;11679.054
893.151; 2271.128;    2.763;11676.534
893.677; 2284.974;    2.170;11641.063
894.204; 2299.710;    1.604;11712.869
894.730; 2322.930;    1.544;11743.628
895.256; 2350.311;    2.004;11750.920
895.783; 2384.894;    2.417;11841.229
896.309; 2399.550;    1.769;11876.500
896.835; 2427.963;    1.559;11977.813
897.361; 2459.012;    1.603;12099.589
897.887; 2489.423;    1.909;12146.932
898.413; 2535.531;    2.613;12315.799
898.939; 2560.638;    2.652;12404.012
899.465; 2591.026;    2.444;12498.476
899.991; 2626.075;    2.314;12629.896
900.517; 2664.536;    2.446;12771.473
901.043; 2737.632;    3.206;12896.053
901.569; 2803.550;    3.334;13125.071
902.094; 2882.804;    3.354;13310.450
902.620; 2953.763;    3.176;13481.510
903.146; 3022.012;    3.120;13618.001
903.671; 3115.679;    3.769;13806.183
904.197; 3210.114;    4.130;14011.966
904.722; 3266.124;    3.550;14206.348
905.247; 3327.867;    3.282;14293.041
905.773; 3418.549;    3.019;14464.986
906.298; 3514.648;    3.240;14709.578
906.823; 3612.107;    3.577;14982.038
907.348; 3724.078;    3.473;15265.006
907.874; 3851.833;    2.982;15511.556
908.399; 3998.319;    2.692;15835.110
908.924; 4162.318;    3.016;16200.273
909.449; 4277.794;    3.177;16508.785
909.974; 4441.140;    3.036;16923.283
910.498; 4617.984;    2.793;17328.609
911.023; 4794.190;    2.434;17761.566
911.548; 4987.264;    2.523;18187.576
912.073; 5216.854;    3.410;18667.494
912.597; 5444.881;    3.563;19198.959
913.122; 5701.602;    3.259;19742.561
913.646; 5960.004;    3.086;20224.523
914.171; 6228.987;    2.784;20722.605
914.695; 6500.564;    2.906;21222.521
915.220; 6781.130;    3.034;21806.916
915.744; 7045.380;    2.206;22301.039
916.268; 7357.652;    1.524;22873.074
916.792; 7715.311;    1.380;23530.238
917.317; 8083.025;    1.507;24224.422
917.841; 8483.438;    2.016;24937.467
918.365; 8917.342;    2.123;25646.908
918.889; 9378.405;    1.912;26364.502
919.413; 9844.228;    1.887;27100.746
919.937;10299.715;    2.030;27777.152
920.460;10766.191;    2.297;28402.709
920.984;11294.341;    2.373;29150.492
921.508;11859.671;    2.309;29881.307
922.032;12429.310;    2.120;30680.703
922.555;12995.947;    2.004;31518.904
923.079;13605.404;    2.273;32388.623
923.602;14265.070;    2.616;33302.730
924.126;14931.067;    2.520;34195.930
924.649;15598.772;    2.530;34920.207
925.173;16267.422;    2.380;35716.066
925.696;16987.162;    2.843;36464.445
926.219;17731.127;    3.130;37299.285
926.742;18483.631;    2.983;38146.891
927.265;19253.132;    2.573;38976.273
927.788;20048.658;    2.239;39875.109
928.311;20847.657;    2.272;40773.555
928.834;21662.891;    2.582;41666.059
929.357;22462.127;    2.447;42550.793
929.880;23301.572;    2.117;43384.668
930.403;24205.184;    1.910;44289.578
930.926;25114.064;    2.197;45200.805
931.448;25968.800;    2.784;45881.578
931.971;26886.382;    3.134;46748.977
932.494;27804.941;    2.839;47677.344
933.016;28760.185;    2.637;48568.527
933.539;29690.374;    2.913;49428.512
934.061;30554.284;    3.514;50230.582
934.583;31377.757;    3.579;51015.633
935.106;32281.625;    3.426;51997.719
935.628;33024.182;    2.893;52761.930
936.150;33771.235;    2.750;53433.273
936.672;34456.294;    2.960;54131.781
937.194;35177.265;    3.810;54823.695
937.717;35886.392;    3.719;55589.617
938.238;36550.644;    3.602;56270.785
938.760;37181.807;    3.463;56925.250
939.282;37827.244;    3.720;57699.832
939.804;38379.470;    4.132;58443.074
940.326;38848.982;    3.876;59032.020
940.848;39253.321;    2.803;59697.023
941.369;39627.190;    2.282;60207.105
941.891;39996.862;    2.270;60739.371
942.412;40242.342;    2.580;61146.535
942.934;40461.247;    2.636;61415.410
943.455;40673.825;    2.512;61732.191
943.977;40865.457;    2.326;62112.648
944.498;40971.962;    2.294;62365.422
945.019;41047.541;    2.513;62637.707
945.540;41104.290;    2.769;62854.461
946.061;41123.862;    2.576;63095.852
946.583;41115.245;    2.217;63332.723
947.104;40965.850;    1.809;63457.359
947.625;40814.158;    2.222;63582.199
948.145;40640.010;    2.652;63622.527
948.666;40398.295;    2.642;63622.547
949.187;40094.011;    2.070;63622.547
949.708;39803.055;    1.747;63622.547
950.229;39567.665;    2.222;63622.547
950.749;39360.737;    2.880;63622.547
951.270;39079.161;    2.917;63622.547
951.790;38767.264;    2.654;63622.547
952.311;38412.202;    2.417;63622.547
952.831;38015.035;    2.617;63622.547
953.351;37610.211;    3.192;63622.547
953.872;37169.321;    3.172;63622.547
954.392;36727.934;    2.917;63622.547
954.912;36294.702;    2.380;63622.547
955.432;35801.011;    2.290;63622.547
955.952;35338.224;    2.739;63622.547
956.472;34895.368;    3.084;63622.547
956.992;34420.172;    2.762;63622.547
957.512;33860.224;    2.264;63622.547
958.032;33296.777;    1.833;63532.262
958.552;32799.332;    2.784;63504.820
959.072;32311.505;    3.216;63364.914
959.591;31851.850;    3.274;63263.574
960.111;31413.071;    2.850;63196.781
960.630;30946.391;    2.557;62986.195
961.150;30528.770;    2.799;62841.500
961.669;30130.048;    3.302;62742.633
962.189;29673.861;    2.752;62557.477
962.708;29279.548;    2.359;62371.625
963.227;28864.268;    1.872;62226.809
963.746;28412.477;    1.930;61942.617
964.266;27979.567;    2.306;61691.484
964.785;27562.725;    2.304;61331.680
965.304;27195.471;    2.217;61078.941
965.823;26831.808;    1.949;60635.340
966.342;26459.584;    1.766;60428.191
966.860;26106.161;    2.210;60120.004
967.379;25758.094;    2.429;59792.289
967.898;25394.195;    2.300;59497.418
968.417;24997.837;    2.090;59213.414
968.935;24579.370;    1.716;58832.531
969.454;24229.527;    1.984;58614.277
969.972;23907.268;    2.612;58243.492
970.491;23525.215;    2.547;57838.348
971.009;23135.137;    2.454;57435.824
971.527;22801.497;    2.204;57056.234
972.046;22510.274;    2.647;56576.109
972.564;22220.515;    3.236;56133.441
973.082;21933.904;    3.280;55759.000
973.600;21571.098;    2.760;55278.211
974.118;21295.592;    2.382;54927.426
974.636;21094.765;    2.372;54614.387
975.154;20900.524;    2.960;54394.617
975.672;20660.805;    2.902;54197.617
976.190;20447.337;    2.726;53941.109
976.707;20208.942;    2.676;53640.688
977.225;20004.748;    2.637;53398.617
977.743;19777.772;    3.109;53041.590
978.260;19519.725;    3.257;52707.586
978.778;19281.631;    2.950;52226.055
979.295;19085.737;    2.624;51865.840
979.813;18875.415;    2.294;51533.199
980.330;18641.351;    2.270;51120.422
980.847;18411.408;    2.719;50668.754
981.364;18205.690;    2.684;50289.602
981.882;18016.538;    2.644;49911.637
982.399;17839.432;    2.589;49598.129
982.916;17646.222;    2.517;49259.723
983.433;17462.252;    2.962;48947.969
983.950;17295.824;    3.203;48633.215
984.466;17157.741;    3.113;48387.238
984.983;16995.308;    2.673;48042.805
985.500;16849.262;    2.572;47802.168
986.017;16686.251;    2.683;47532.930
986.533;16566.887;    2.923;47317.250
987.050;16452.417;    2.903;46966.617
987.566;16321.697;    2.587;46668.813
988.083;16230.750;    2.309;46380.609
988.599;16175.680;    2.834;46166.215
989.115;16112.488;    3.257;45851.758
989.632;16021.932;    3.287;45588.469
990.148;15891.011;    2.962;45174.547
990.664;15762.355;    2.346;44854.375
991.180;15707.137;    2.416;44672.984
991.696;15634.162;    2.682;44452.504
992.212;15530.342;    2.522;44152.266
992.728;15443.092;    1.972;43964.152
993.244;15395.415;    1.713;43750.309
993.759;15384.184;    1.810;43581.016
994.275;15374.735;    2.432;43455.055
994.791;15317.281;    2.527;43199.113
995.306;15262.492;    2.440;42908.988
995.822;15207.510;    2.209;42579.008
996.337;15152.365;    2.030;42137.359
996.853;15088.662;    2.282;41768.715
997.368;15015.754;    2.360;41480.547
997.883;14974.807;    2.197;41091.008
998.399;14961.290;    2.144;40724.305
998.914;14923.834;    2.007;40468.547
999.429;14929.880;    2.112;40357.430
999.944;14982.270;    2.557;40297.449
1000.459;15032.011;    2.383;40163.867
1000.974;15060.895;    2.330;39916.711
1001.489;15010.102;    1.780;39623.426
1002.003;14987.217;    1.487;39384.430
1002.518;15010.627;    1.920;39180.191
1003.033;15013.318;    2.064;38910.250
1003.547;14966.477;    1.912;38641.512
1004.062;14935.727;    1.749;38428.656
1004.576;14900.237;    1.609;38101.621
1005.091;14939.441;    2.179;37897.547
1005.605;14961.780;    2.549;37715.797
1006.119;14967.957;    2.143;37495.773
1006.634;14963.885;    1.790;37185.254
1007.148;14994.622;    1.649;36862.855
1007.662;15032.421;    1.896;36473.949
1008.176;15105.534;    2.389;36386.141
1008.690;15160.040;    2.346;36271.355
1009.204;15182.572;    2.019;36016.840
1009.718;15197.100;    1.769;35684.918
1010.232;15258.771;    2.030;35388.047
1010.745;15274.527;    2.490;35116.422
1011.259;15287.750;    2.697;34913.055
1011.773;15325.921;    2.347;34621.551
1012.286;15391.208;    2.146;34371.059
1012.800;15466.620;    2.349;34085.102
1013.313;15588.892;    3.010;33880.461
1013.827;15667.870;    3.240;33727.223
1014.340;15782.647;    3.039;33545.277
1014.853;15870.390;    2.664;33300.844
1015.366;15912.268;    2.482;32898.785
1015.879;15941.554;    2.762;32553.359
1016.392;15978.267;    2.932;32282.133
1016.905;16000.364;    2.604;32026.051
1017.418;16047.198;    2.217;31785.176
1017.931;16095.717;    1.953;31554.885
1018.444;16160.855;    2.086;31295.619
1018.957;16240.878;    2.570;31150.408
1019.469;16335.110;    2.520;30979.613
1019.982;16431.520;    2.150;30731.809
1020.495;16497.402;    1.846;30422.285
1021.007;16559.242;    1.850;30041.791
1021.520;16620.215;    2.164;29747.840
1022.032;16695.812;    2.184;29453.471
1022.544;16804.374;    1.869;29166.754
1023.056;16879.727;    1.552;28804.457
1023.569;16952.088;    1.537;28556.045
1024.081;17062.458;    1.987;28375.811
1024.593;17149.397;    2.284;28091.252
1025.105;17235.221;    2.132;27792.154
1025.617;17330.981;    1.929;27553.668
1026.128;17389.807;    1.774;27290.357
1026.640;17475.941;    2.229;27076.352
1027.152;17562.158;    2.630;26809.574
1027.664;17653.592;    2.722;26490.369
1028.175;17781.242;    2.654;26329.713
1028.687;17874.108;    2.337;26039.875
1029.198;17928.665;    2.503;25655.727
1029.710;18033.924;    3.090;25365.354
1030.221;18119.738;    3.069;25063.055
1030.732;18217.404;    2.882;24800.590
1031.244;18278.910;    2.433;24537.537
1031.755;18321.917;    2.137;24251.926
1032.266;18395.550;    2.573;24028.807
1032.777;18490.554;    2.790;23860.662
1033.288;18542.672;    2.463;23568.455
1033.799;18632.915;    2.336;23215.146
1034.309;18753.072;    2.343;22963.000
1034.820;18851.911;    2.717;22662.727
1035.331;18976.755;    3.333;22417.885
1035.842;19055.570;    3.277;22090.092
1036.352;19188.644;    3.279;21801.348
1036.863;19350.448;    3.303;21652.621
1037.373;19425.832;    3.344;21424.164
1037.883;19473.117;    3.799;21041.703
1038.394;19613.978;    4.207;20804.199
1038.904;19721.491;    3.833;20515.896
1039.414;19842.681;    3.537;20313.012
1039.924;19916.451;    3.119;20077.188
1040.434;19957.804;    3.119;19719.982
1040.944;20085.397;    3.030;19532.789
1041.454;20187.587;    2.576;19384.912
1041.964;20214.158;    1.752;19087.643
1042.474;20284.000;    1.684;18844.938
1042.984;20370.620;    2.099;18594.365
1043.493;20438.290;    2.466;18367.119
1044.003;20524.938;    2.487;18155.055
1044.513;20597.652;    2.329;17871.613
1045.022;20665.894;    2.163;17585.314
1045.531;20769.847;    2.847;17309.871
1046.041;20815.484;    3.176;16993.605
1046.550;20875.427;    3.082;16713.688
1047.059;20944.875;    2.839;16379.297
1047.568;21042.081;    2.723;16151.854
1048.077;21135.750;    2.920;15980.566
1048.586;21251.240;    3.289;15843.576
1049.095;21313.340;    2.837;15698.096
1049.604;21430.885;    2.484;15584.145
1050.113;21544.194;    2.252;15427.253
1050.622;21655.631;    2.439;15308.589
1051.131;21709.420;    2.810;15082.664
1051.639;21776.251;    2.864;14862.076
1052.148;21852.674;    2.637;14645.816
1052.656;21980.738;    2.717;14487.964
1053.165;22064.248;    2.860;14279.916
1053.673;22129.267;    3.250;14054.473
1054.181;22186.752;    3.344;13876.803
1054.689;22258.024;    3.040;13713.152
1055.198;22304.238;    2.759;13537.778
1055.706;22319.642;    2.224;13324.923
1056.214;22324.460;    2.103;13131.906
1056.722;22304.704;    2.044;12938.912
1057.230;22332.908;    1.694;12785.721
1057.737;22332.044;    1.372;12564.434
1058.245;22324.380;    1.187;12349.795
1058.753;22318.195;    1.197;12117.972
1059.260;22317.760;    1.950;11907.732
1059.768;22270.434;    2.176;11648.731
1060.275;22259.117;    2.266;11439.057
1060.783;22219.674;    2.082;11230.695
1061.290;22231.465;    2.136;11094.542
1061.798;22246.027;    2.334;10972.809
1062.305;22279.254;    3.027;10880.651
1062.812;22271.594;    2.983;10728.360
1063.319;22285.197;    2.737;10627.897
1063.826;22302.705;    2.776;10498.917
1064.333;22292.882;    3.279;10372.106
1064.840;22250.350;    3.453;10197.577
1065.347;22201.964;    3.526;10012.375
1065.853;22104.915;    2.713; 9772.009
1066.360;22057.195;    2.362; 9597.981
1066.867;22031.528;    2.513; 9465.561
1067.373;22002.718;    2.569; 9357.037
1067.880;21994.671;    2.506; 9242.722
1068.386;21997.705;    2.879; 9132.897
1068.893;21984.231;    2.800; 9048.545
1069.399;21989.751;    3.000; 9030.695
1069.905;21965.932;    3.579; 8954.759
1070.411;21894.420;    3.569; 8798.769
1070.917;21801.021;    3.347; 8647.953
1071.423;21674.525;    3.076; 8453.875
1071.929;21559.914;    2.506; 8304.103
1072.435;21423.932;    2.697; 8115.749
1072.941;21312.431;    3.044; 7933.825
1073.447;21207.955;    2.792; 7803.302
1073.952;21119.691;    2.643; 7733.983
1074.458;21040.634;    2.493; 7656.602
1074.963;20966.662;    2.722; 7592.441
1075.469;20872.527;    2.964; 7512.932
1075.974;20820.737;    3.243; 7468.063
1076.480;20703.118;    2.909; 7376.791
1076.985;20563.920;    2.632; 7261.283
1077.490;20415.705;    2.774; 7114.183
1077.995;20261.038;    3.122; 6976.710
1078.500;20094.452;    3.053; 6843.616
1079.005;19957.917;    2.957; 6752.896
1079.510;19802.050;    2.196; 6668.232
1080.015;19695.401;    2.196; 6636.338
1080.520;19571.915;    2.507; 6585.188
1081.024;19446.092;    2.746; 6518.342
1081.529;19286.972;    2.454; 6424.997
1082.034;19117.198;    2.220; 6316.505
1082.538;18949.702;    2.122; 6217.849
1083.043;18776.870;    2.567; 6112.647
1083.547;18531.622;    2.839; 5910.792
1084.051;18331.795;    2.799; 5784.195
1084.556;18126.817;    2.287; 5659.222
1085.060;17984.630;    2.177; 5615.208
1085.564;17873.230;    2.460; 5618.755
1086.068;17693.784;    2.744; 5536.627
1086.572;17498.080;    2.696; 5430.294
1087.076;17386.758;    2.346; 5439.927
1087.579;17244.271;    2.072; 5404.441
1088.083;17098.707;    2.159; 5376.665
1088.587;16955.851;    2.490; 5355.822
1089.091;16784.151;    2.607; 5288.697
1089.594;16660.184;    2.523; 5284.645
1090.098;16546.382;    2.460; 5291.539
1090.601;16387.088;    2.553; 5244.263
1091.104;16224.308;    2.830; 5195.975
1091.608;16070.825;    3.040; 5150.841
1092.111;15891.282;    2.816; 5072.273
1092.614;15717.008;    2.429; 5008.488
1093.117;15540.697;    2.024; 4942.912
1093.620;15367.244;    2.177; 4875.650
1094.123;15219.410;    2.384; 4829.920
1094.626;15100.372;    2.306; 4815.296
1095.128;14985.142;    2.209; 4803.711
1095.631;14855.441;    1.953; 4762.972
1096.134;14794.208;    2.140; 4802.609
1096.636;14676.612;    2.423; 4762.596
1097.139;14584.347;    2.472; 4759.360
1097.641;14463.755;    2.163; 4711.942
1098.144;14368.202;    1.896; 4694.844
1098.646;14262.057;    1.749; 4653.817
1099.148;14168.650;    2.306; 4617.034
1099.650;14047.117;    2.543; 4541.768
1100.152;14020.692;    2.624; 4591.478
1100.654;13978.678;    2.053; 4606.142
1101.156;13929.362;    1.739; 4603.552
1101.658;13915.238;    2.094; 4649.595
1102.160;13889.717;    2.372; 4676.285
1102.661;13859.577;    2.084; 4691.736
1103.163;13818.824;    1.644; 4682.379
1103.665;13742.537;    1.396; 4610.822
1104.166;13702.882;    2.013; 4592.904
1104.668;13684.818;    2.654; 4596.018
1105.169;13618.157;    2.604; 4517.614
1105.670;13623.351;    2.594; 4541.507
1106.171;13615.628;    2.633; 4537.230
1106.673;13597.468;    2.646; 4521.662
1107.174;13607.367;    3.170; 4534.950
1107.675;13587.450;    3.092; 4504.059
1108.176;13578.897;    2.919; 4492.615
1108.677;13581.388;    2.780; 4496.758
1109.177;13536.518;    2.736; 4410.517
1109.678;13519.114;    2.997; 4375.675
1110.179;13544.652;    3.584; 4392.108
1110.679;13541.768;    3.229; 4371.376
1111.180;13565.535;    2.934; 4386.493
1111.680;13589.240;    2.722; 4401.255
1112.181;13590.537;    2.937; 4382.575
1112.681;13594.868;    3.180; 4381.578
1113.181;13583.392;    2.914; 4349.369
1113.681;13560.841;    2.363; 4313.968
1114.181;13533.914;    2.090; 4282.822
1114.681;13488.407;    2.232; 4218.349
1115.181;13417.497;    2.617; 4122.668
1115.681;13369.692;    2.642; 4071.019
1116.181;13309.711;    2.194; 4013.261
1116.681;13262.831;    2.032; 3984.944
1117.180;13186.100;    1.989; 3922.824
1117.680;13088.682;    2.422; 3841.386
1118.179;13004.730;    2.506; 3786.503
1118.679;12930.075;    2.299; 3752.450
1119.178;12843.295;    1.994; 3702.206
1119.677;12760.897;    1.892; 3669.481
1120.177;12662.897;    2.096; 3623.697
1120.676;12552.238;    2.334; 3572.163
1121.175;12434.844;    2.174; 3514.432
1121.674;12312.217;    1.890; 3471.236
1122.173;12196.557;    1.629; 3444.517
1122.672;12046.802;    1.823; 3383.060
1123.170;11898.044;    2.270; 3329.537
1123.669;11731.665;    2.413; 3257.476
1124.168;11566.947;    2.217; 3185.566
1124.666;11425.690;    2.097; 3157.632
1125.165;11266.022;    2.352; 3100.342
1125.663;11089.927;    2.784; 3024.888
1126.161;10916.498;    2.783; 2957.844
1126.660;10738.648;    2.483; 2888.217
1127.158;10578.418;    2.226; 2847.043
1127.656;10416.790;    2.394; 2805.782
1128.154;10240.242;    2.723; 2743.097
1128.652;10066.555;    2.927; 2695.135
1129.150; 9877.755;    2.743; 2629.151
1129.648; 9707.021;    3.150; 2584.330
1130.145; 9530.171;    3.444; 2529.145
1130.643; 9359.140;    3.749; 2482.469
1131.141; 9167.774;    3.964; 2407.491
1131.638; 8976.354;    3.662; 2327.719
1132.136; 8791.698;    3.180; 2248.120
1132.633; 8632.080;    3.030; 2204.013
1133.130; 8454.221;    2.537; 2135.113
1133.628; 8295.344;    2.604; 2093.670
1134.125; 8118.982;    2.526; 2025.073
1134.622; 7981.410;    2.144; 2010.190
1135.119; 7837.342;    1.992; 1985.589
1135.616; 7677.065;    2.067; 1938.569
1136.113; 7516.180;    2.550; 1885.344
1136.610; 7386.161;    2.687; 1871.835
1137.106; 7242.550;    2.326; 1833.252
1137.603; 7096.397;    2.083; 1792.829
1138.100; 6943.830;    2.197; 1737.667
1138.596; 6800.510;    2.414; 1692.750
1139.092; 6673.731;    2.806; 1671.765
1139.589; 6545.752;    2.634; 1650.065
1140.085; 6400.828;    2.349; 1599.450
1140.581; 6256.967;    2.139; 1546.986
1141.077; 6144.330;    2.413; 1532.773
1141.573; 6024.705;    2.539; 1506.949
1142.069; 5909.147;    2.557; 1489.667
1142.565; 5788.922;    2.262; 1457.024
1143.061; 5673.512;    1.889; 1426.755
1143.557; 5555.102;    2.149; 1396.590
1144.053; 5434.272;    2.483; 1360.365
1144.548; 5303.187;    2.506; 1305.560
1145.044; 5192.912;    2.410; 1281.092
1145.539; 5093.584;    2.326; 1266.983
1146.035; 4985.505;    2.292; 1240.785
1146.530; 4888.555;    2.594; 1229.922
1147.025; 4815.754;    2.654; 1248.090
1147.520; 4752.290;    2.877; 1276.898
1148.015; 4693.755;    2.840; 1314.400
1148.510; 4607.811;    2.797; 1311.918
1149.005; 4519.601;    3.192; 1303.986
1149.500; 4439.720;    3.476; 1305.616
1149.995; 4345.261;    3.470; 1280.368
1150.490; 4226.880;    3.074; 1215.801
1150.984; 4116.957;    2.562; 1165.601
1151.479; 3997.754;    2.486; 1098.066
1151.973; 3897.567;    2.662; 1053.232
1152.468; 3794.272;    2.397; 1003.382
1152.962; 3693.897;    2.156;  956.020
1153.456; 3620.071;    2.157;  952.558
1153.950; 3545.934;    2.269;  943.715
1154.445; 3473.107;    2.806;  934.926
1154.939; 3402.324;    2.849;  926.575
1155.433; 3329.592;    2.677;  913.804
1155.926; 3257.595;    2.436;  897.591
1156.420; 3185.644;    2.254;  880.284
1156.914; 3090.092;    2.156;  826.262
1157.408; 3021.578;    2.360;  814.630
1157.901; 2956.161;    2.097;  805.590
1158.395; 2895.197;    1.899;  800.486
1158.888; 2825.851;    1.689;  782.174
1159.381; 2762.470;    1.963;  773.196
1159.875; 2702.981;    2.367;  766.613
1160.368; 2652.981;    2.614;  768.124

