
Integration time [ms]:   1.500
Averaging Nr. [scans]: 100
Smoothing Nr. [pixels]: 3
Data measured with spectrometer [name]: 1908047U1
Wave   ;Sample   ;Dark     ;Reference;Scope
[nm]   ;[counts] ;[counts] ;[counts] 

128.909;  231.779;   -0.956;   81.480
129.461;  246.026;   -2.716;   68.201
130.013;  257.442;   -5.226;  127.577
130.565;  253.794;   -5.833;   92.420
131.118;  256.807;   -7.108;   92.061
131.670;  256.322;   -8.558;   89.289
132.222;  259.286;   -9.323;   90.332
132.774;  262.123;   -9.738;   93.177
133.326;  260.846;   -9.531;   87.110
133.879;  267.369;   -9.040;  112.505
134.431;  269.844;   -8.584;  114.788
134.983;  274.030;   -7.924;  120.104
135.536;  282.293;   -6.583;  140.699
136.088;  285.796;   -5.250;  143.215
136.640;  292.199;   -3.798;  161.972
137.193;  300.208;   -2.756;  177.550
137.745;  301.455;   -1.884;  166.469
138.297;  307.086;   -1.080;  175.815
138.850;  309.721;    0.217;  169.282
139.402;  306.276;    1.163;  145.747
139.955;  306.202;    1.837;  140.625
140.507;  305.334;    1.986;  135.541
141.059;  305.524;    2.133;  140.475
141.612;  298.882;    2.262;  118.250
142.164;  295.089;    2.540;  108.850
142.717;  292.270;    2.220;  110.377
143.269;  297.962;    2.054;  127.122
143.822;  299.253;    1.553;  131.258
144.374;  298.985;    1.423;  117.332
144.927;  304.064;    1.552;  138.005
145.479;  313.242;    1.683;  164.124
146.032;  314.407;    1.249;  162.761
146.585;  305.316;    0.549;  159.004
147.137;  303.707;    0.057;  154.978
147.690;  307.629;    0.379;  162.423
148.242;  309.850;    0.360;  165.702
148.795;  304.390;   -0.123;  135.965
149.348;  312.959;   -0.437;  161.531
149.900;  316.701;   -0.683;  168.784
150.453;  325.937;   -0.416;  167.544
151.006;  325.893;   -0.317;  157.140
151.558;  321.037;   -0.691;  131.408
152.111;  319.848;   -1.101;  125.534
152.664;  322.027;   -1.121;  125.643
153.217;  344.923;   -0.413;  165.077
153.769;  354.139;    0.327;  186.637
154.322;  362.327;    0.566;  207.353
154.875;  363.992;    0.433;  221.057
155.428;  367.193;    0.063;  236.716
155.981;  368.482;    0.100;  236.154
156.533;  370.277;    0.427;  245.665
157.086;  343.126;   -0.161;  187.529
157.639;  330.869;   -0.830;  156.059
158.192;  330.341;   -1.161;  153.487
158.745;  334.481;   -1.164;  150.934
159.298;  338.609;   -0.594;  162.720
159.851;  340.627;   -0.151;  179.672
160.403;  342.172;   -0.346;  180.200
160.956;  346.461;   -0.558;  191.508
161.509;  349.009;   -0.891;  209.365
162.062;  348.160;   -0.766;  210.421
162.615;  348.564;   -0.300;  215.667
163.168;  346.116;   -0.528;  206.383
163.721;  346.740;   -0.731;  201.954
164.274;  346.084;   -0.873;  194.270
164.827;  339.785;   -0.904;  165.926
165.380;  343.308;   -0.003;  167.377
165.933;  352.117;    0.656;  194.129
166.486;  359.472;    0.630;  223.380
167.039;  359.311;    0.490;  223.937
167.592;  355.743;    0.099;  220.099
168.145;  354.506;    0.239;  219.343
168.698;  356.779;    0.633;  233.576
169.251;  359.792;    0.546;  250.380
169.805;  349.991;   -0.151;  231.070
170.358;  340.497;   -0.627;  205.186
170.911;  337.957;   -0.514;  206.950
171.464;  341.330;    0.264;  213.754
172.017;  340.532;    0.496;  212.202
172.570;  338.429;   -0.048;  204.650
173.123;  327.596;   -0.650;  165.281
173.677;  324.396;   -0.624;  145.419
174.230;  325.257;   -0.040;  137.518
174.783;  325.958;    0.146;  128.423
175.336;  325.092;   -0.388;  122.164
175.889;  325.025;   -0.823;  131.546
176.443;  323.244;   -0.943;  142.725
176.996;  322.917;   -0.631;  150.585
177.549;  325.650;   -0.251;  152.597
178.102;  317.389;   -0.776;  154.093
178.656;  316.899;   -1.050;  162.210
179.209;  327.260;   -0.793;  194.327
179.762;  332.117;   -0.216;  200.188
180.316;  335.734;    0.432;  195.494
180.869;  340.735;    0.357;  203.059
181.422;  340.326;   -0.097;  206.060
181.976;  348.856;   -0.141;  208.198
182.529;  350.040;   -0.067;  209.382
183.082;  343.345;    0.160;  195.925
183.636;  344.825;    0.277;  209.978
184.189;  348.858;    0.227;  223.233
184.742;  348.573;    0.203;  222.744
185.296;  351.878;    0.527;  234.617
185.849;  353.206;    1.033;  243.134
186.403;  358.319;    1.534;  258.465
186.956;  360.889;    1.486;  272.314
187.510;  350.390;    0.730;  250.674
188.063;  343.997;    0.337;  233.093
188.616;  345.181;    0.616;  242.778
189.170;  352.275;    1.193;  268.651
189.723;  353.950;    1.132;  275.893
190.277;  352.630;    0.729;  277.982
190.830;  343.367;    0.172;  253.698
191.384;  345.133;    0.529;  255.823
191.937;  345.525;    0.950;  258.270
192.491;  343.149;    0.780;  249.932
193.044;  333.434;    0.199;  221.050
193.598;  328.930;   -0.220;  206.899
194.152;  325.806;   -0.194;  192.022
194.705;  321.223;    0.213;  183.121
195.259;  321.103;    0.453;  178.953
195.812;  320.475;    0.172;  179.429
196.366;  317.653;   -0.017;  169.020
196.919;  317.606;   -0.017;  177.349
197.473;  319.744;    0.549;  197.773
198.027;  319.290;    0.733;  210.611
198.580;  320.794;    0.504;  218.090
199.134;  327.907;    0.286;  251.004
199.688;  330.651;    0.156;  279.800
200.241;  330.294;    0.460;  287.300
200.795;  332.453;    0.899;  301.186
201.349;  331.571;    0.862;  299.919
201.902;  325.634;    0.462;  282.093
202.456;  327.359;    0.543;  285.254
203.010;  322.553;    0.820;  271.297
203.563;  315.521;    1.349;  241.150
204.117;  311.200;    1.250;  235.284
204.671;  301.093;    0.706;  203.856
205.224;  296.689;    0.377;  201.152
205.778;  295.938;    0.616;  210.287
206.332;  288.754;    0.850;  193.502
206.886;  277.282;    0.677;  169.325
207.439;  271.997;    0.339;  170.309
207.993;  266.332;    0.123;  170.826
208.547;  266.433;    0.220;  197.406
209.101;  262.271;    0.629;  213.198
209.655;  257.879;    0.942;  223.561
210.208;  253.000;    0.852;  234.685
210.762;  248.965;    0.606;  240.586
211.316;  244.077;    0.357;  259.985
211.870;  241.024;    0.616;  271.264
212.424;  229.448;    0.707;  251.076
212.978;  222.415;    0.354;  234.412
213.531;  215.905;   -0.331;  230.097
214.085;  224.201;   -0.361;  265.819
214.639;  231.124;   -0.186;  298.030
215.193;  244.369;    0.516;  327.768
215.747;  249.443;    0.559;  339.924
216.301;  264.131;    0.333;  378.115
216.855;  270.505;    0.040;  380.979
217.408;  277.503;    0.102;  385.425
217.962;  283.211;    0.507;  398.915
218.516;  289.907;    0.750;  412.690
219.070;  289.730;    0.286;  414.748
219.624;  295.932;   -0.047;  468.086
220.178;  294.473;   -0.281;  503.832
220.732;  294.822;    0.163;  559.737
221.286;  297.517;    0.552;  639.033
221.840;  292.151;    0.197;  688.959
222.394;  284.722;   -0.250;  748.833
222.948;  273.662;   -0.606;  814.889
223.502;  267.522;   -0.263;  874.108
224.056;  270.932;    0.542;  981.147
224.610;  274.768;    0.659; 1079.019
225.164;  276.849;    0.507; 1148.415
225.718;  278.123;    0.254; 1222.435
226.272;  279.788;    0.537; 1299.885
226.826;  287.338;    1.133; 1396.841
227.380;  289.286;    1.299; 1478.244
227.934;  293.705;    1.149; 1574.331
228.488;  291.565;    0.656; 1663.035
229.042;  290.746;    0.607; 1761.206
229.596;  292.394;    1.153; 1869.580
230.150;  295.453;    1.426; 2018.704
230.704;  297.353;    1.319; 2124.937
231.258;  299.234;    0.973; 2227.511
231.812;  293.394;    0.672; 2288.332
232.366;  294.604;    1.106; 2359.752
232.920;  296.822;    1.500; 2434.752
233.475;  297.070;    1.270; 2478.347
234.029;  297.287;    0.827; 2519.393
234.583;  299.909;    0.623; 2576.057
235.137;  300.535;    0.583; 2617.121
235.691;  303.646;    0.956; 2652.944
236.245;  305.938;    0.967; 2687.143
236.799;  305.126;    0.484; 2698.259
237.353;  306.717;    0.032; 2752.390
237.907;  311.596;    0.153; 2761.727
238.462;  313.981;    0.413; 2785.468
239.016;  322.692;    0.717; 2812.104
239.570;  330.257;    0.362; 2827.286
240.124;  336.328;   -0.247; 2822.374
240.678;  353.119;   -0.058; 2856.755
241.232;  370.480;    0.580; 2850.436
241.787;  382.068;    0.866; 2825.305
242.341;  396.846;    0.844; 2775.853
242.895;  411.028;    0.547; 2729.929
243.449;  424.606;    0.470; 2661.678
244.003;  445.493;    0.993; 2640.098
244.558;  460.013;    1.139; 2596.839
245.112;  473.884;    0.827; 2559.348
245.666;  495.871;    0.262; 2550.339
246.220;  524.933;   -0.176; 2576.008
246.774;  563.959;    0.074; 2613.732
247.329;  603.698;    0.366; 2665.573
247.883;  648.382;    0.383; 2716.526
248.437;  700.572;    0.142; 2772.716
248.991;  774.388;    0.247; 2899.593
249.546;  851.448;    0.579; 3009.092
250.100;  932.210;    1.172; 3096.640
250.654; 1021.101;    1.290; 3213.949
251.208; 1123.147;    0.979; 3342.878
251.763; 1240.201;    0.759; 3492.765
252.317; 1425.746;    1.510; 3802.482
252.871; 1579.961;    1.807; 3958.187
253.425; 1744.472;    2.212; 4150.249
253.980; 1934.103;    2.153; 4415.629
254.534; 2130.641;    1.869; 4636.183
255.088; 2343.228;    1.747; 4869.483
255.642; 2574.552;    1.882; 5141.348
256.197; 2775.633;    1.570; 5310.366
256.751; 3037.331;    1.357; 5628.093
257.305; 3307.987;    0.804; 5929.252
257.860; 3577.500;    0.476; 6235.714
258.414; 3857.603;    0.497; 6637.004
258.968; 4150.031;    1.073; 7066.455
259.523; 4444.813;    1.457; 7492.314
260.077; 4707.504;    1.330; 7883.355
260.631; 4934.094;    0.829; 8234.991
261.186; 5151.846;    0.966; 8614.577
261.740; 5335.030;    1.572; 8973.924
262.294; 5477.512;    1.673; 9295.035
262.849; 5594.541;    1.484; 9672.979
263.403; 5664.206;    1.190;10019.032
263.957; 5703.874;    0.854;10365.578
264.512; 5688.028;    1.250;10705.432
265.066; 5635.230;    1.463;11028.701
265.620; 5559.753;    1.007;11322.521
266.175; 5457.749;    0.616;11636.590
266.729; 5310.475;    0.080;11821.056
267.283; 5164.149;   -0.010;12053.292
267.838; 5010.333;    0.469;12269.140
268.392; 4864.297;    0.656;12475.800
268.946; 4710.137;    0.369;12694.704
269.501; 4567.247;    0.183;12898.050
270.055; 4429.669;    0.549;13070.373
270.610; 4266.214;    1.290;13247.700
271.164; 4074.685;    1.603;13348.588
271.718; 3869.329;    1.359;13437.129
272.273; 3658.102;    1.006;13527.156
272.827; 3445.433;    1.039;13589.958
273.381; 3205.563;    1.626;13652.798
273.936; 2959.868;    1.967;13693.679
274.490; 2724.153;    1.659;13759.029
275.045; 2481.911;    0.996;13775.910
275.599; 2263.314;    0.789;13782.016
276.153; 2063.862;    1.163;13820.409
276.708; 1864.677;    1.484;13848.893
277.262; 1680.173;    1.116;13903.695
277.817; 1521.366;    0.623;14007.138
278.371; 1387.845;    0.469;14136.773
278.925; 1286.161;    1.012;14346.304
279.480; 1180.670;    1.474;14613.256
280.034; 1083.629;    1.289;14904.528
280.589; 1014.489;    0.996;15302.363
281.143;  951.485;    0.656;15618.002
281.698;  896.504;    0.680;15940.294
282.252;  868.671;    1.693;16291.759
282.806;  836.120;    2.107;16682.402
283.361;  803.025;    1.740;17101.295
283.915;  774.803;    1.566;17561.377
284.470;  752.555;    1.603;17888.264
285.024;  728.621;    2.146;18173.012
285.579;  704.765;    2.663;18531.531
286.133;  664.366;    1.952;18901.814
286.687;  625.975;    1.124;19216.586
287.242;  606.758;    1.049;19572.494
287.796;  588.617;    1.319;19864.744
288.351;  573.605;    1.293;20240.389
288.905;  575.764;    1.307;20798.324
289.460;  566.794;    0.924;21286.486
290.014;  561.373;    0.769;21790.734
290.569;  560.346;    1.099;22316.279
291.123;  561.044;    1.524;22857.588
291.677;  561.201;    1.614;23385.848
292.232;  552.439;    1.654;23904.844
292.786;  539.412;    1.236;24358.730
293.341;  533.909;    1.123;24727.863
293.895;  531.063;    1.424;25123.277
294.450;  531.896;    1.734;25524.271
295.004;  536.078;    1.660;25811.418
295.559;  537.425;    1.344;26092.074
296.113;  540.438;    1.007;26333.066
296.667;  544.640;    1.153;26507.764
297.222;  559.575;    1.546;26739.646
297.776;  570.142;    1.497;26858.646
298.331;  581.254;    1.074;26864.711
298.885;  592.980;    0.813;26810.711
299.440;  616.085;    0.924;26722.340
299.994;  636.966;    1.496;26606.666
300.549;  663.264;    1.870;26585.238
301.103;  686.282;    1.510;26531.613
301.658;  728.420;    1.507;26449.648
302.212;  767.427;    1.649;26399.551
302.766;  801.579;    2.019;26372.904
303.321;  839.556;    2.332;26403.324
303.875;  897.013;    2.316;26491.959
304.430;  945.806;    1.829;26471.434
304.984;  994.716;    1.706;26514.270
305.539; 1042.872;    1.530;26622.086
306.093; 1117.293;    2.134;26824.564
306.648; 1188.718;    1.822;27084.906
307.202; 1243.524;    1.302;27340.906
307.756; 1286.361;    0.894;27544.486
308.311; 1342.067;    1.387;27814.803
308.865; 1391.648;    1.893;28011.299
309.420; 1453.148;    2.279;28199.574
309.974; 1470.697;    1.633;28340.434
310.529; 1488.699;    1.516;28338.043
311.083; 1506.243;    1.613;28281.004
311.638; 1516.831;    2.163;28047.199
312.192; 1515.091;    2.329;27875.396
312.747; 1504.333;    2.009;27810.410
313.301; 1468.174;    1.543;27785.930
313.855; 1440.294;    1.253;27746.797
314.410; 1416.050;    1.904;27830.840
314.964; 1393.203;    2.407;27972.625
315.519; 1360.985;    2.216;28425.551
316.073; 1320.017;    1.554;28824.047
316.628; 1281.453;    1.422;29130.102
317.182; 1236.486;    1.694;29528.285
317.736; 1192.151;    2.139;29925.502
318.291; 1148.800;    1.876;30299.746
318.845; 1094.040;    1.516;30697.639
319.400; 1037.098;    1.159;30855.463
319.954;  975.340;    1.423;31015.430
320.509;  918.233;    1.697;31209.553
321.063;  853.997;    1.430;31187.637
321.617;  790.165;    1.064;31147.822
322.172;  719.092;    0.469;31148.564
322.726;  655.810;    0.536;31027.078
323.281;  604.533;    1.067;31078.949
323.835;  562.473;    1.472;30995.207
324.390;  515.821;    1.394;30892.326
324.944;  475.745;    1.324;30724.332
325.498;  436.552;    1.257;30569.758
326.053;  402.173;    1.956;30409.090
326.607;  368.159;    2.116;30261.652
327.162;  336.709;    1.872;29994.971
327.716;  303.269;    1.424;29789.141
328.270;  278.848;    1.204;29503.053
328.825;  256.971;    1.574;29315.000
329.379;  244.148;    2.222;29152.016
329.934;  229.049;    2.087;28887.242
330.488;  214.126;    1.857;28662.639
331.042;  202.035;    1.616;28513.902
331.597;  191.033;    1.512;28416.201
332.151;  182.715;    2.052;28439.477
332.706;  179.859;    2.127;28491.287
333.260;  167.232;    1.584;28518.180
333.814;  160.488;    1.354;28708.705
334.369;  155.981;    1.309;28963.756
334.923;  152.510;    1.839;29207.672
335.477;  147.843;    2.197;29507.557
336.032;  144.965;    1.890;29740.414
336.586;  137.360;    1.540;29957.424
337.140;  138.790;    1.644;30124.875
337.695;  144.026;    2.210;30217.273
338.249;  149.142;    2.759;30163.551
338.804;  148.857;    2.517;30131.803
339.358;  154.338;    2.399;29945.625
339.912;  155.819;    2.323;29680.383
340.467;  152.195;    2.247;29450.922
341.021;  151.254;    2.737;29186.371
341.575;  147.379;    2.416;28884.750
342.130;  145.482;    1.889;28621.021
342.684;  149.453;    1.543;28255.734
343.238;  153.076;    1.394;27933.422
343.793;  160.873;    1.564;27596.031
344.347;  180.021;    1.837;27245.014
344.901;  199.538;    1.283;26948.455
345.455;  227.412;    1.007;26646.621
346.010;  257.800;    0.923;26303.057
346.564;  311.435;    1.790;25967.205
347.118;  365.330;    2.282;25617.910
347.673;  430.737;    2.040;25298.354
348.227;  504.765;    1.614;24984.043
348.781;  601.778;    1.683;24670.641
349.336;  703.690;    1.924;24409.111
349.890;  826.459;    2.314;24177.725
350.444;  950.166;    1.497;24041.117
350.998; 1111.811;    0.779;23966.352
351.553; 1296.594;    0.853;23894.701
352.107; 1501.018;    1.294;23813.922
352.661; 1713.192;    1.396;23740.139
353.215; 1967.710;    1.484;23687.559
353.770; 2243.117;    1.089;23711.092
354.324; 2534.588;    1.049;23668.881
354.878; 2841.118;    1.224;23576.838
355.432; 3159.710;    1.434;23603.270
355.987; 3493.272;    1.367;23579.992
356.541; 3831.123;    1.234;23601.512
357.095; 4156.776;    0.693;23586.143
357.649; 4474.628;    0.537;23515.674
358.203; 4782.080;    0.763;23591.217
358.758; 5075.971;    1.033;23713.898
359.312; 5340.393;    0.956;23744.121
359.866; 5607.488;    0.922;23830.150
360.420; 5822.029;    0.863;23919.086
360.974; 5992.739;    1.160;24024.520
361.529; 6117.649;    1.667;24066.256
362.083; 6220.199;    1.714;24015.072
362.637; 6254.859;    1.454;23843.332
363.191; 6261.404;    1.277;23686.980
363.745; 6211.831;    1.239;23574.730
364.299; 6148.317;    1.540;23275.020
364.854; 6091.664;    1.793;23004.582
365.408; 6030.678;    1.672;22832.361
365.962; 5980.983;    1.867;22694.938
366.516; 5908.415;    1.912;22598.512
367.070; 5825.211;    2.243;22514.027
367.624; 5734.975;    2.447;22414.686
368.178; 5678.526;    2.469;22382.342
368.733; 5551.462;    2.214;22190.098
369.287; 5417.914;    2.070;21957.773
369.841; 5241.581;    2.169;21666.898
370.395; 5075.888;    2.696;21434.756
370.949; 4901.820;    2.530;21176.719
371.503; 4724.313;    2.272;20857.873
372.057; 4535.221;    2.347;20664.771
372.611; 4368.401;    2.583;20616.932
373.165; 4188.964;    2.980;20522.125
373.719; 4033.412;    2.860;20495.113
374.273; 3884.390;    2.349;20506.424
374.827; 3776.197;    2.120;20575.273
375.381; 3643.561;    2.134;20700.756
375.935; 3496.201;    2.203;20870.318
376.489; 3396.873;    2.386;21010.650
377.043; 3296.461;    2.034;21245.135
377.597; 3183.053;    1.577;21402.420
378.151; 3080.112;    1.196;21493.182
378.705; 2955.511;    1.479;21569.070
379.259; 2851.423;    1.754;21522.289
379.813; 2759.761;    1.423;21474.793
380.367; 2650.333;    0.873;21484.975
380.921; 2563.727;    0.797;21414.805
381.475; 2479.994;    1.229;21378.598
382.029; 2391.174;    1.902;21284.203
382.583; 2306.948;    1.850;21271.482
383.137; 2219.585;    1.359;21301.518
383.691; 2133.792;    1.177;21300.807
384.245; 2049.614;    1.234;21209.238
384.799; 1965.497;    1.590;21174.924
385.353; 1874.082;    1.592;21108.598
385.907; 1795.689;    1.316;21192.297
386.461; 1716.032;    1.083;21215.785
387.015; 1655.549;    1.360;21203.338
387.569; 1589.355;    1.889;21174.619
388.122; 1522.289;    2.104;21097.770
388.676; 1450.515;    1.903;21012.865
389.230; 1389.290;    1.553;20967.229
389.784; 1333.453;    1.410;20923.844
390.338; 1286.325;    1.933;20870.760
390.892; 1225.125;    1.982;20801.979
391.446; 1176.815;    1.653;20746.834
391.999; 1138.352;    1.459;20785.510
392.553; 1109.407;    1.220;20842.127
393.107; 1097.253;    1.697;20918.428
393.661; 1083.955;    2.186;20928.527
394.215; 1059.157;    2.016;20849.471
394.768; 1044.714;    1.859;20884.371
395.322; 1040.985;    1.867;20896.906
395.876; 1030.711;    2.114;20921.127
396.430; 1023.266;    2.769;20898.637
396.984;  993.694;    2.666;20817.242
397.537;  963.404;    2.269;20688.838
398.091;  945.948;    1.972;20699.154
398.645;  936.661;    2.234;20627.068
399.198;  910.167;    2.689;20504.336
399.752;  880.398;    2.704;20371.180
400.306;  850.332;    2.034;20250.672
400.860;  831.838;    1.823;20129.586
401.413;  815.450;    1.749;20069.705
401.967;  805.675;    2.179;19988.576
402.521;  786.510;    2.394;19907.193
403.074;  771.331;    2.083;19895.150
403.628;  762.291;    1.956;19857.600
404.182;  753.153;    1.919;19800.021
404.735;  737.804;    2.024;19732.807
405.289;  725.690;    2.382;19662.846
405.843;  709.244;    2.070;19524.451
406.396;  693.763;    1.782;19413.264
406.950;  683.826;    1.594;19221.857
407.503;  676.378;    1.399;18984.822
408.057;  662.684;    1.927;18753.191
408.611;  650.300;    1.907;18601.270
409.164;  642.344;    1.660;18458.930
409.718;  631.087;    1.399;18288.682
410.271;  619.716;    1.146;18133.148
410.825;  604.967;    1.410;18012.455
411.378;  586.609;    1.899;17928.895
411.932;  572.943;    1.537;17856.725
412.485;  569.587;    1.200;17696.875
413.039;  563.496;    1.014;17527.594
413.592;  556.858;    1.517;17508.240
414.146;  551.013;    2.139;17459.979
414.699;  547.873;    2.102;17396.783
415.253;  544.848;    1.862;17302.285
415.806;  550.121;    1.943;17208.291
416.360;  544.298;    2.102;17176.025
416.913;  528.681;    2.394;17166.963
417.466;  527.140;    2.573;17054.414
418.020;  528.272;    2.026;17014.334
418.573;  524.018;    1.532;17029.051
419.127;  530.411;    1.297;17176.988
419.680;  542.440;    1.624;17421.408
420.233;  560.519;    1.959;17641.104
420.787;  586.567;    1.922;17828.533
421.340;  600.417;    1.173;18077.789
421.894;  612.860;    1.093;18257.363
422.447;  634.182;    1.720;18406.648
423.000;  646.709;    2.184;18408.650
423.553;  650.225;    1.816;18379.383
424.107;  661.611;    1.613;18282.965
424.660;  671.164;    1.514;18085.246
425.213;  678.498;    1.934;17834.660
425.767;  688.855;    2.327;17649.459
426.320;  704.179;    2.252;17452.555
426.873;  716.900;    1.960;17170.824
427.426;  735.004;    1.932;16950.828
427.980;  758.347;    2.239;16857.219
428.533;  774.256;    2.722;16754.145
429.086;  793.700;    2.900;16615.451
429.639;  815.865;    2.762;16493.891
430.192;  832.503;    2.344;16340.891
430.746;  849.638;    2.006;16243.344
431.299;  869.633;    2.322;16024.472
431.852;  881.969;    2.293;15833.229
432.405;  907.363;    1.854;15705.715
432.958;  937.195;    1.516;15577.941
433.511;  971.647;    1.394;15405.151
434.064; 1013.673;    1.970;15264.161
434.618; 1067.810;    2.657;15210.028
435.171; 1120.883;    2.524;15236.144
435.724; 1175.885;    2.299;15147.426
436.277; 1239.671;    2.116;15147.960
436.830; 1310.480;    2.199;15154.341
437.383; 1378.421;    2.389;15153.959
437.936; 1455.730;    2.160;15213.801
438.489; 1545.673;    1.732;15315.050
439.042; 1651.746;    1.554;15404.146
439.595; 1759.401;    1.406;15457.778
440.148; 1888.353;    2.030;15557.823
440.701; 2007.284;    2.400;15696.485
441.254; 2127.898;    2.054;15775.416
441.807; 2248.347;    1.649;15859.172
442.360; 2366.293;    1.599;15981.597
442.913; 2495.542;    1.869;16110.760
443.466; 2628.593;    2.222;16298.816
444.018; 2753.836;    1.820;16424.895
444.571; 2902.705;    1.292;16585.398
445.124; 3080.078;    1.276;16878.648
445.677; 3305.205;    1.923;17229.840
446.230; 3540.683;    2.504;17594.146
446.783; 3797.995;    2.380;18064.014
447.336; 4105.901;    2.113;18674.588
447.888; 4439.194;    1.829;19301.225
448.441; 4820.624;    1.942;20007.875
448.994; 5236.477;    2.613;20734.004
449.547; 5653.311;    2.213;21495.510
450.099; 6098.140;    1.696;22254.613
450.652; 6542.389;    1.496;22895.506
451.205; 6976.499;    1.327;23460.619
451.758; 7445.397;    2.059;24134.697
452.310; 7857.027;    2.246;24729.506
452.863; 8241.427;    1.922;25201.469
453.416; 8593.235;    1.686;25500.367
453.968; 8938.969;    1.369;25802.340
454.521; 9257.046;    1.574;26090.832
455.074; 9589.338;    2.090;26478.313
455.626; 9867.736;    1.527;26716.381
456.179;10170.092;    1.156;26966.133
456.732;10486.242;    0.914;27342.787
457.284;10829.482;    1.274;27745.297
457.837;11212.801;    1.703;28049.557
458.389;11610.554;    1.747;28410.693
458.942;11999.831;    1.820;28558.881
459.494;12398.858;    1.866;28850.662
460.047;12821.533;    1.937;29184.119
460.599;13257.678;    2.434;29409.664
461.152;13666.675;    2.716;29662.150
461.704;14018.742;    2.786;29898.029
462.257;14348.154;    2.439;30135.412
462.809;14667.382;    1.800;30426.805
463.362;14978.971;    2.139;30624.643
463.914;15245.810;    2.703;30758.453
464.467;15454.942;    2.336;30871.873
465.019;15684.624;    1.807;30990.223
465.571;15870.865;    1.520;31090.037
466.124;16083.667;    1.813;31254.561
466.676;16252.564;    2.386;31373.615
467.229;16397.806;    2.237;31392.443
467.781;16531.467;    1.743;31415.758
468.333;16678.137;    1.543;31539.332
468.885;16781.685;    1.457;31655.814
469.438;16881.185;    1.712;31748.795
469.990;16981.156;    1.772;31751.547
470.542;17107.909;    1.347;31918.857
471.095;17239.495;    1.120;32155.582
471.647;17397.764;    1.322;32421.803
472.199;17544.320;    1.853;32546.111
472.751;17732.458;    2.572;32718.479
473.303;17944.973;    2.549;33041.320
473.856;18180.499;    2.516;33350.652
474.408;18378.492;    2.353;33585.246
474.960;18604.119;    2.633;33910.680
475.512;18830.432;    2.804;34154.949
476.064;19096.839;    2.573;34539.535
476.616;19365.340;    2.134;34967.367
477.168;19671.636;    1.953;35302.965
477.720;19947.457;    2.009;35659.094
478.272;20293.164;    2.733;35952.043
478.824;20597.609;    2.703;36127.410
479.376;20876.004;    2.282;36288.531
479.928;21101.841;    1.819;36305.574
480.480;21282.505;    1.867;36193.648
481.032;21414.782;    2.503;36139.602
481.584;21492.212;    2.677;35989.031
482.136;21510.717;    2.369;35870.645
482.688;21494.664;    1.929;35665.895
483.240;21509.912;    2.156;35556.148
483.792;21502.939;    2.893;35552.098
484.344;21516.215;    2.843;35478.727
484.896;21539.484;    2.297;35413.402
485.448;21565.481;    1.614;35332.148
485.999;21612.563;    1.312;35335.699
486.551;21759.673;    2.014;35424.953
487.103;21869.247;    2.332;35449.473
487.655;22032.348;    2.017;35367.098
488.207;22183.690;    1.869;35367.191
488.758;22327.295;    1.843;35219.875
489.310;22515.862;    2.244;35051.664
489.862;22711.339;    2.786;34840.652
490.414;22806.778;    2.760;34534.398
490.965;22896.658;    2.762;34138.566
491.517;22884.917;    2.729;33744.191
492.069;22810.182;    2.702;33286.777
492.620;22661.146;    2.850;32785.492
493.172;22402.620;    3.092;32180.316
493.724;22023.179;    2.614;31491.195
494.275;21600.600;    2.122;30783.773
494.827;21126.439;    1.743;30114.309
495.378;20616.882;    2.044;29348.791
495.930;20073.672;    2.550;28638.299
496.481;19504.701;    2.702;27875.699
497.033;18969.883;    2.303;27266.074
497.584;18486.460;    2.249;26717.234
498.136;18048.835;    3.017;26180.563
498.687;17571.281;    3.606;25583.523
499.239;17115.399;    3.493;25109.701
499.790;16707.782;    3.153;24652.186
500.342;16329.505;    2.799;24273.920
500.893;15968.839;    3.027;23856.111
501.444;15617.046;    3.447;23441.369
501.996;15266.515;    2.983;23114.922
502.547;14975.053;    2.526;22823.727
503.098;14823.686;    3.136;22486.547
503.650;14606.040;    3.196;22118.588
504.201;14390.572;    3.617;21869.178
504.752;14164.548;    3.916;21635.783
505.303;13948.239;    3.617;21420.023
505.855;13710.038;    3.219;21200.555
506.406;13489.549;    2.917;20947.488
506.957;13169.644;    2.223;20790.715
507.508;12931.887;    2.282;20601.246
508.060;12682.030;    2.087;20310.139
508.611;12415.287;    1.549;20053.422
509.162;12117.213;    1.139;19639.668
509.713;11851.172;    1.310;19256.934
510.264;11585.472;    1.830;18995.607
510.815;11351.000;    1.987;18766.771
511.366;11124.930;    1.833;18538.787
511.917;10949.040;    1.559;18376.559
512.468;10806.080;    1.662;18184.379
513.019;10720.401;    2.434;18075.482
513.570;10638.725;    2.582;17912.895
514.121;10557.355;    2.273;17685.191
514.672;10512.747;    1.946;17464.381
515.223;10498.008;    1.840;17317.418
515.774;10524.127;    2.246;17190.230
516.325;10561.720;    2.597;17064.516
516.876;10599.498;    2.137;16972.088
517.427;10675.283;    1.897;16852.500
517.977;10802.321;    1.684;16829.553
518.528;10925.387;    1.913;16766.789
519.079;11055.469;    2.636;16643.695
519.630;11174.586;    2.637;16517.559
520.181;11316.070;    2.292;16393.189
520.731;11490.636;    2.093;16230.644
521.282;11649.012;    2.262;16145.105
521.833;11792.350;    2.833;15953.990
522.384;11933.860;    3.003;15736.516
522.934;12051.164;    2.524;15565.753
523.485;12145.252;    2.183;15287.285
524.036;12246.269;    2.237;15035.617
524.586;12322.294;    2.803;14812.778
525.137;12365.020;    2.873;14528.730
525.687;12410.612;    2.540;14334.950
526.238;12447.304;    1.984;14182.572
526.788;12466.396;    1.686;13979.543
527.339;12508.569;    1.906;13912.451
527.889;12521.825;    2.084;13840.368
528.440;12504.393;    1.917;13741.925
528.990;12530.010;    1.562;13694.818
529.541;12548.364;    1.103;13649.667
530.091;12584.507;    1.544;13573.315
530.642;12632.593;    1.986;13536.518
531.192;12651.868;    1.922;13433.861
531.742;12690.536;    1.774;13329.195
532.293;12744.245;    1.506;13240.494
532.843;12804.722;    1.989;13155.667
533.393;12873.377;    3.007;13067.846
533.944;12889.575;    3.190;12937.999
534.494;12899.678;    2.904;12841.794
535.044;12943.837;    2.793;12827.269
535.594;12948.927;    2.776;12724.246
536.145;12976.650;    3.426;12705.307
536.695;12917.798;    3.626;12650.707
537.245;12817.424;    3.290;12536.481
537.795;12679.602;    2.870;12405.452
538.345;12513.093;    2.602;12205.625
538.895;12311.433;    2.696;11973.585
539.445;12154.331;    3.359;11850.345
539.995;11944.395;    3.229;11644.610
540.546;11748.812;    2.790;11454.025
541.096;11556.355;    2.564;11253.143
541.646;11438.620;    2.876;11160.063
542.196;11329.435;    3.986;11117.994
542.745;11227.682;    4.383;10992.626
543.295;11098.853;    3.679;10818.802
543.845;11002.565;    3.020;10664.616
544.395;10967.867;    3.157;10537.937
544.945;10946.048;    3.542;10437.008
545.495;10923.422;    3.429;10312.914
546.045;10943.838;    2.642;10157.087
546.595;11051.464;    2.114;10132.882
547.144;11157.922;    1.857;10129.313
547.694;11287.293;    2.146;10071.276
548.244;11528.465;    2.586;10157.261
548.794;11765.887;    2.499;10213.468
549.343;12011.180;    2.292;10254.829
549.893;12299.904;    2.319;10309.021
550.443;12526.680;    2.772;10297.742
550.992;12805.746;    3.576;10341.335
551.542;13044.791;    3.669;10400.935
552.092;13137.378;    2.873;10295.830
552.641;13221.815;    2.409;10220.709
553.191;13243.999;    2.432;10088.492
553.740;13166.789;    2.596; 9981.619
554.290;13059.914;    2.409; 9879.782
554.839;12873.190;    1.797; 9732.347
555.389;12655.775;    1.489; 9579.819
555.938;12445.768;    1.624; 9448.642
556.488;12265.696;    2.280; 9380.240
557.037;12081.616;    2.792; 9306.070
557.587;11903.542;    2.614; 9193.501
558.136;11744.159;    2.304; 9074.878
558.685;11620.434;    2.067; 8978.863
559.235;11562.228;    2.554; 8970.063
559.784;11486.562;    2.873; 8935.447
560.333;11371.950;    2.320; 8842.257
560.882;11290.963;    1.557; 8798.376
561.432;11282.728;    2.362; 8811.530
561.981;11244.941;    3.004; 8832.772
562.530;11189.522;    3.846; 8854.897
563.079;11100.640;    3.802; 8845.270
563.628;11061.301;    3.680; 8890.656
564.177;11013.146;    3.587; 8926.356
564.727;10952.058;    3.702; 8930.638
565.276;10854.328;    3.030; 8935.100
565.825;10779.278;    2.650; 8923.014
566.374;10722.359;    2.376; 8880.985
566.923;10675.259;    1.913; 8842.500
567.472;10597.515;    1.547; 8767.553
568.021;10555.076;    1.879; 8729.559
568.570;10528.538;    2.146; 8743.938
569.118;10497.376;    1.980; 8718.981
569.667;10489.516;    1.466; 8718.521
570.216;10475.426;    1.053; 8738.259
570.765;10476.002;    1.536; 8729.440
571.314;10472.000;    1.957; 8677.952
571.863;10462.164;    1.730; 8637.989
572.412;10468.322;    1.516; 8576.199
572.960;10514.563;    1.499; 8565.977
573.509;10573.182;    2.052; 8576.002
574.058;10640.060;    2.622; 8564.113
574.606;10696.339;    2.579; 8566.061
575.155;10754.896;    2.123; 8557.312
575.704;10842.786;    2.007; 8559.807
576.252;10964.532;    2.043; 8606.314
576.801;11049.224;    2.240; 8616.514
577.349;11154.640;    2.630; 8592.634
577.898;11280.670;    2.533; 8606.127
578.447;11394.021;    2.204; 8612.758
578.995;11556.233;    2.262; 8671.027
579.543;11712.354;    2.560; 8692.212
580.092;11839.911;    2.830; 8705.449
580.640;11981.385;    2.753; 8701.837
581.189;12107.250;    2.173; 8714.320
581.737;12237.542;    1.720; 8741.893
582.286;12395.235;    2.182; 8766.525
582.834;12552.054;    2.827; 8813.563
583.382;12704.876;    2.799; 8908.095
583.930;12867.925;    2.554; 8984.256
584.479;13043.129;    2.374; 9092.036
585.027;13201.174;    2.482; 9187.023
585.575;13365.040;    2.706; 9277.856
586.123;13556.105;    2.640; 9419.933
586.671;13746.342;    2.320; 9590.307
587.220;13945.497;    2.210; 9733.620
587.768;14111.278;    1.994; 9897.634
588.316;14310.076;    2.263;10096.534
588.864;14513.012;    2.514;10316.001
589.412;14704.411;    2.584;10561.078
589.960;14853.737;    2.170;10715.612
590.508;14982.595;    2.039;10852.594
591.056;15140.695;    2.652;11023.095
591.604;15341.005;    3.446;11256.100
592.152;15455.044;    3.357;11426.526
592.700;15557.713;    2.952;11630.218
593.247;15661.320;    2.499;11816.598
593.795;15769.145;    2.757;12038.872
594.343;15863.053;    3.304;12177.236
594.891;15916.373;    3.064;12294.479
595.439;15876.392;    2.414;12302.669
595.986;15885.707;    2.230;12362.772
596.534;15898.897;    2.402;12379.223
597.082;15872.116;    3.080;12393.918
597.629;15850.236;    3.019;12443.362
598.177;15809.699;    2.442;12502.169
598.725;15751.206;    1.872;12569.535
599.272;15754.079;    1.832;12688.868
599.820;15723.996;    2.059;12764.727
600.367;15684.284;    2.407;12818.869
600.915;15657.426;    2.230;12846.904
601.462;15638.335;    2.030;12878.114
602.010;15638.199;    2.004;12918.974
602.557;15635.443;    2.186;12958.457
603.105;15632.811;    2.450;12968.645
603.652;15642.080;    2.244;12953.086
604.199;15672.799;    1.716;12991.679
604.747;15748.507;    1.426;13065.749
605.294;15820.791;    1.613;13149.854
605.841;15887.418;    2.009;13196.427
606.389;15971.112;    2.289;13229.990
606.936;16104.698;    2.389;13281.705
607.483;16266.652;    2.473;13366.182
608.030;16444.858;    2.593;13450.556
608.577;16604.192;    3.089;13503.925
609.124;16781.359;    3.414;13530.827
609.671;16972.392;    3.263;13531.775
610.219;17228.071;    3.124;13586.985
610.766;17489.963;    3.076;13652.589
611.313;17727.076;    3.359;13696.247
611.860;17952.808;    3.696;13691.382
612.407;18208.023;    3.402;13744.073
612.953;18489.033;    3.094;13803.055
613.500;18804.302;    2.687;13963.831
614.047;19077.626;    2.676;14088.208
614.594;19297.716;    2.943;14153.533
615.141;19562.592;    2.934;14289.390
615.688;19834.551;    2.662;14392.395
616.234;20074.602;    2.352;14383.341
616.781;20277.856;    2.427;14404.511
617.328;20463.084;    3.026;14463.528
617.875;20609.448;    3.217;14430.008
618.421;20769.040;    2.823;14425.002
618.968;20889.301;    2.467;14403.573
619.515;20999.526;    2.446;14453.614
620.061;21043.962;    2.966;14456.558
620.608;21052.859;    3.190;14439.548
621.154;21088.272;    3.072;14490.834
621.701;21121.631;    2.693;14596.449
622.247;21103.608;    2.407;14643.035
622.794;21045.017;    2.492;14610.465
623.340;20934.153;    2.562;14561.553
623.886;20867.959;    2.234;14674.229
624.433;20772.547;    1.856;14771.703
624.979;20629.970;    1.497;14855.765
625.525;20438.552;    1.456;14879.796
626.072;20272.507;    1.993;15013.922
626.618;20097.995;    2.237;15086.968
627.164;19955.794;    2.179;15216.661
627.710;19766.055;    1.949;15272.576
628.256;19581.676;    1.902;15347.232
628.803;19353.211;    2.222;15288.673
629.349;19177.204;    2.703;15327.968
629.895;18976.365;    2.340;15302.955
630.441;18775.732;    2.077;15384.949
630.987;18540.901;    1.966;15428.438
631.533;18333.082;    2.394;15510.812
632.079;18113.738;    2.679;15478.526
632.625;17914.192;    2.392;15503.278
633.171;17723.342;    1.999;15515.245
633.717;17553.267;    1.983;15583.961
634.262;17390.833;    1.926;15637.299
634.808;17235.940;    2.134;15604.214
635.354;17117.085;    1.967;15582.511
635.900;17036.662;    1.794;15660.251
636.446;16978.112;    1.794;15695.133
636.991;16902.588;    1.982;15665.549
637.537;16825.217;    2.374;15658.527
638.083;16770.222;    2.630;15671.771
638.628;16709.354;    2.392;15669.538
639.174;16682.301;    2.177;15634.639
639.719;16651.752;    2.007;15602.901
640.265;16640.038;    2.457;15666.940
640.810;16657.317;    2.746;15761.846
641.356;16695.073;    2.499;15785.044
641.901;16746.943;    2.143;15793.367
642.447;16867.002;    2.082;15886.419
642.992;16947.158;    2.392;15948.362
643.538;17123.017;    3.356;16007.633
644.083;17275.727;    3.243;16007.868
644.628;17422.250;    2.600;16026.446
645.173;17586.275;    2.316;16060.482
645.719;17744.743;    2.584;16029.560
646.264;17911.425;    3.014;16035.871
646.809;18107.362;    3.140;16053.347
647.354;18258.617;    2.349;16064.777
647.899;18460.086;    1.969;16042.783
648.444;18725.130;    1.912;15987.191
648.989;18975.225;    2.267;15911.073
649.535;19255.958;    2.157;15936.846
650.080;19555.019;    1.782;15929.212
650.625;19870.078;    1.302;15901.366
651.169;20265.464;    1.397;15894.328
651.714;20666.240;    1.806;15915.406
652.259;21072.580;    2.502;16022.624
652.804;21487.182;    2.607;16059.087
653.349;21903.485;    2.584;16004.739
653.894;22335.648;    2.593;16000.641
654.438;22772.357;    3.023;16002.390
654.983;23186.060;    3.520;15978.784
655.528;23567.144;    3.599;15956.043
656.073;23908.091;    2.980;15884.135
656.617;24264.900;    2.600;15902.928
657.162;24561.162;    2.557;15918.126
657.706;24774.733;    2.927;15854.354
658.251;24938.336;    2.997;15830.059
658.796;25063.958;    2.983;15816.769
659.340;25146.835;    2.740;15742.755
659.884;25207.501;    2.739;15715.711
660.429;25325.717;    3.174;15745.523
660.973;25387.540;    3.514;15749.963
661.518;25448.452;    3.137;15801.950
662.062;25506.252;    2.634;15809.180
662.606;25545.378;    1.940;15850.870
663.151;25583.420;    2.006;15947.389
663.695;25657.966;    2.777;16038.801
664.239;25529.856;    2.532;15946.139
664.783;25431.402;    2.046;15888.099
665.327;25330.500;    1.842;15830.063
665.871;25177.194;    1.917;15788.773
666.416;24948.709;    2.292;15663.833
666.960;24753.260;    2.416;15634.777
667.504;24464.541;    1.692;15510.952
668.048;24253.804;    1.454;15518.514
668.592;24057.752;    1.650;15600.340
669.135;23897.038;    2.409;15620.888
669.679;23697.324;    2.786;15632.665
670.223;23493.651;    2.417;15703.724
670.767;23264.514;    2.076;15668.647
671.311;23033.996;    2.050;15688.210
671.855;22817.891;    2.456;15709.610
672.398;22622.387;    2.780;15689.408
672.942;22335.699;    2.412;15629.038
673.486;22120.655;    2.242;15575.172
674.029;21954.162;    2.190;15575.683
674.573;21785.834;    2.436;15606.302
675.117;21630.160;    2.932;15572.540
675.660;21455.456;    2.576;15512.987
676.204;21278.236;    2.172;15447.049
676.747;21184.525;    1.907;15501.265
677.291;21099.953;    1.782;15547.051
677.834;20986.608;    2.164;15502.416
678.377;20906.508;    2.104;15476.438
678.921;20846.433;    1.629;15443.263
679.464;20847.794;    1.402;15475.839
680.007;20869.017;    1.356;15534.808
680.551;20857.565;    1.544;15511.611
681.094;20895.285;    1.923;15564.133
681.637;20958.201;    1.787;15591.499
682.180;21005.760;    1.574;15584.659
682.723;21094.937;    1.526;15632.621
683.266;21171.106;    1.853;15626.680
683.809;21222.484;    2.160;15535.618
684.352;21332.129;    2.846;15460.701
684.895;21437.775;    2.543;15372.903
685.438;21538.392;    2.252;15363.421
685.981;21634.207;    2.463;15345.217
686.524;21730.777;    3.100;15310.160
687.067;21828.484;    3.309;15293.864
687.610;21965.242;    3.166;15416.497
688.153;22058.757;    2.349;15483.719
688.695;22091.520;    2.277;15442.604
689.238;22159.439;    2.782;15413.378
689.781;22220.901;    2.836;15336.210
690.324;22257.977;    2.353;15302.956
690.866;22233.107;    1.977;15226.162
691.409;22214.056;    1.613;15157.224
691.951;22185.767;    1.826;15161.359
692.494;22156.803;    2.156;15187.062
693.036;22062.405;    1.789;15111.805
693.579;22000.859;    1.513;15160.040
694.121;21898.255;    1.619;15132.405
694.664;21824.491;    2.032;15159.161
695.206;21644.323;    2.602;15062.693
695.748;21469.629;    2.546;15012.453
696.291;21277.665;    2.267;15024.275
696.833;21042.465;    2.036;15064.395
697.375;20742.009;    2.289;15062.055
697.917;20381.634;    2.590;15077.546
698.459;19959.583;    2.312;15037.439
699.002;19548.407;    1.937;14989.411
699.544;19104.510;    1.872;14960.681
700.086;18675.199;    1.957;14965.402
700.628;18211.348;    2.467;14900.413
701.170;17721.244;    2.449;14795.727
701.712;17259.424;    2.190;14744.772
702.253;16788.205;    1.957;14682.530
702.795;16332.891;    1.899;14711.564
703.337;15842.622;    2.016;14634.118
703.879;15340.348;    2.284;14582.423
704.421;14882.636;    2.186;14617.363
704.963;14435.339;    1.830;14650.117
705.504;13995.921;    1.487;14626.514
706.046;13583.493;    2.003;14632.384
706.588;13185.614;    2.572;14612.898
707.129;12766.713;    2.750;14565.570
707.671;12352.253;    2.519;14476.845
708.212;11970.201;    2.182;14470.286
708.754;11581.142;    2.380;14468.057
709.295;11173.388;    2.869;14392.811
709.837;10798.235;    2.890;14401.028
710.378;10446.121;    2.730;14446.511
710.919;10116.180;    2.319;14481.081
711.461; 9781.783;    2.236;14446.314
712.002; 9455.612;    2.807;14375.581
712.543; 9153.916;    2.989;14315.593
713.084; 8913.181;    2.833;14346.548
713.626; 8671.060;    2.524;14316.675
714.167; 8409.321;    2.072;14243.851
714.708; 8186.680;    2.399;14267.479
715.249; 7979.259;    2.822;14278.298
715.790; 7766.079;    2.367;14261.066
716.331; 7568.406;    2.172;14187.708
716.872; 7356.765;    1.972;14144.852
717.413; 7173.948;    2.187;14123.713
717.954; 6998.134;    2.839;14083.258
718.495; 6813.879;    2.909;13999.944
719.035; 6644.583;    2.410;13954.055
719.576; 6491.528;    2.276;13874.045
720.117; 6440.941;    3.299;13899.501
720.658; 6339.399;    3.954;13882.108
721.198; 6220.935;    3.967;13863.268
721.739; 6119.971;    3.656;13814.367
722.280; 6028.543;    3.264;13754.547
722.820; 5936.823;    3.363;13715.160
723.361; 5856.226;    3.679;13716.846
723.901; 5707.205;    3.009;13621.667
724.442; 5622.621;    2.462;13566.585
724.982; 5550.515;    2.070;13526.836
725.522; 5466.598;    1.613;13504.456
726.063; 5413.661;    1.980;13495.322
726.603; 5378.223;    2.486;13505.397
727.143; 5330.028;    2.619;13466.742
727.684; 5266.219;    2.284;13472.352
728.224; 5210.596;    1.947;13488.968
728.764; 5156.102;    1.983;13426.033
729.304; 5132.703;    2.676;13414.030
729.844; 5090.804;    2.450;13405.615
730.384; 5078.020;    2.560;13359.819
730.924; 5043.396;    2.257;13288.854
731.464; 5020.513;    2.187;13297.818
732.004; 5017.745;    2.826;13338.804
732.544; 5006.447;    3.259;13393.293
733.084; 5014.793;    3.312;13361.595
733.624; 5027.798;    3.339;13396.611
734.164; 5013.966;    2.569;13525.811
734.703; 5038.849;    2.937;13649.519
735.243; 5066.633;    3.386;13757.006
735.783; 5082.464;    3.172;13814.979
736.322; 5121.168;    2.656;13785.030
736.862; 5140.188;    2.214;13828.038
737.402; 5179.738;    2.287;13863.659
737.941; 5215.417;    2.702;13780.377
738.481; 5271.713;    2.606;13855.856
739.020; 5334.478;    2.306;13816.520
739.559; 5415.875;    2.119;13777.062
740.099; 5504.299;    2.436;13913.428
740.638; 5611.485;    3.017;14062.390
741.177; 5728.944;    3.177;14154.896
741.717; 5830.053;    2.739;14267.431
742.256; 5949.149;    2.564;14320.163
742.795; 6067.908;    2.583;14490.283
743.334; 6207.749;    3.227;14693.954
743.873; 6338.327;    3.609;14814.392
744.413; 6474.302;    3.064;14954.564
744.952; 6577.910;    2.629;15087.706
745.491; 6713.694;    2.609;15247.870
746.030; 6822.179;    2.744;15333.473
746.568; 6926.116;    3.032;15421.932
747.107; 6989.836;    2.457;15425.282
747.646; 7063.004;    1.857;15461.001
748.185; 7135.630;    1.886;15424.616
748.724; 7206.608;    2.136;15409.543
749.262; 7260.939;    2.494;15422.843
749.801; 7316.809;    2.523;15438.714
750.340; 7380.880;    2.072;15445.324
750.878; 7434.889;    1.974;15470.133
751.417; 7469.122;    1.899;15409.932
751.956; 7488.654;    2.144;15469.081
752.494; 7523.707;    2.442;15518.773
753.033; 7542.264;    2.486;15436.924
753.571; 7563.454;    2.482;15434.565
754.109; 7547.269;    2.423;15360.589
754.648; 7539.058;    2.797;15347.497
755.186; 7525.295;    3.433;15440.093
755.724; 7463.057;    3.326;15381.480
756.262; 7421.531;    3.226;15310.285
756.801; 7357.501;    2.814;15331.999
757.339; 7246.777;    2.713;15356.514
757.877; 7151.019;    3.390;15353.514
758.415; 7022.399;    3.419;15248.125
758.953; 6873.905;    3.107;15072.784
759.491; 6740.102;    2.869;14999.804
760.029; 6560.383;    2.734;14971.495
760.567; 6407.236;    3.140;14942.096
761.105; 6248.524;    3.253;14756.183
761.643; 6073.377;    2.600;14588.907
762.180; 5910.806;    2.230;14513.956
762.718; 5783.072;    2.192;14470.747
763.256; 5645.911;    2.620;14446.393
763.793; 5498.181;    2.764;14369.944
764.331; 5339.681;    2.552;14255.685
764.869; 5202.691;    2.227;14284.699
765.406; 5063.560;    2.396;14268.366
765.944; 4928.546;    2.787;14263.428
766.481; 4769.466;    3.133;14239.317
767.019; 4628.612;    3.004;14127.480
767.556; 4498.205;    2.776;14039.040
768.093; 4374.308;    2.680;14020.798
768.631; 4242.589;    2.874;13908.893
769.168; 4121.474;    3.304;13795.049
769.705; 3997.676;    3.347;13691.870
770.242; 3894.841;    3.116;13649.803
770.780; 3778.082;    2.463;13592.196
771.317; 3678.660;    2.484;13550.262
771.854; 3581.257;    2.893;13471.947
772.391; 3482.679;    3.210;13412.892
772.928; 3400.349;    3.043;13429.147
773.465; 3311.316;    2.440;13398.306
774.002; 3211.975;    2.127;13309.387
774.538; 3126.318;    2.679;13241.401
775.075; 3036.795;    3.146;13118.635
775.612; 2960.835;    3.192;13056.369
776.149; 2908.940;    3.016;13046.695
776.686; 2846.174;    2.640;13010.475
777.222; 2796.119;    3.077;12964.621
777.759; 2740.336;    3.657;12964.174
778.295; 2677.979;    3.682;12902.590
778.832; 2616.398;    3.176;12908.753
779.368; 2600.650;    3.190;12887.800
779.905; 2545.086;    3.086;12854.366
780.441; 2476.379;    3.349;12800.696
780.978; 2411.585;    3.370;12710.366
781.514; 2354.593;    2.994;12596.820
782.050; 2309.944;    2.693;12558.238
782.586; 2269.445;    2.680;12560.412
783.123; 2173.093;    2.544;12485.188
783.659; 2118.191;    2.716;12394.135
784.195; 2074.866;    2.346;12347.384
784.731; 2029.407;    1.792;12288.531
785.267; 1996.802;    1.623;12246.120
785.803; 1960.955;    1.794;12148.918
786.339; 1936.878;    2.076;12033.048
786.875; 1915.641;    1.864;11977.777
787.411; 1912.687;    2.012;11969.930
787.947; 1897.444;    2.074;11939.280
788.482; 1889.973;    2.592;11964.332
789.018; 1864.428;    2.927;11908.042
789.554; 1849.748;    2.974;11907.400
790.090; 1842.958;    2.732;11881.421
790.625; 1829.788;    2.637;11854.802
791.161; 1789.026;    2.250;11783.131
791.696; 1778.634;    2.763;11725.830
792.232; 1766.122;    2.844;11685.956
792.767; 1763.995;    2.777;11690.128
793.303; 1753.549;    2.587;11676.556
793.838; 1733.052;    2.566;11632.534
794.373; 1720.854;    2.773;11560.866
794.909; 1707.035;    2.949;11462.723
795.444; 1688.611;    2.620;11410.744
795.979; 1672.423;    2.289;11314.146
796.514; 1659.958;    1.922;11259.623
797.049; 1656.582;    2.302;11258.978
797.584; 1642.205;    2.630;11238.729
798.119; 1632.380;    2.614;11228.720
798.654; 1639.020;    2.384;11267.354
799.189; 1640.863;    2.320;11243.914
799.724; 1637.473;    2.323;11264.951
800.259; 1643.227;    2.847;11262.826
800.794; 1645.599;    2.907;11200.135
801.329; 1650.735;    2.604;11153.245
801.863; 1655.214;    2.257;11128.419
802.398; 1651.888;    2.324;11081.932
802.933; 1640.174;    2.422;10963.883
803.467; 1642.147;    2.709;10841.859
804.002; 1638.649;    2.387;10741.154
804.536; 1635.678;    1.782;10658.524
805.071; 1647.804;    1.464;10654.964
805.605; 1665.687;    1.962;10629.821
806.139; 1673.610;    2.163;10574.163
806.674; 1704.924;    2.193;10676.176
807.208; 1725.316;    1.947;10711.335
807.742; 1741.432;    1.717;10733.925
808.277; 1766.670;    2.420;10741.487
808.811; 1778.658;    3.082;10734.969
809.345; 1785.848;    3.136;10643.591
809.879; 1811.771;    3.137;10637.672
810.413; 1829.910;    3.059;10587.516
810.947; 1853.036;    3.507;10572.150
811.481; 1890.090;    4.410;10590.169
812.015; 1903.780;    4.270;10612.771
812.549; 1929.673;    3.960;10586.839
813.082; 1966.415;    3.502;10636.075
813.616; 1993.660;    3.253;10620.640
814.150; 2023.093;    3.612;10553.794
814.683; 2057.019;    3.577;10508.280
815.217; 2099.960;    2.820;10483.739
815.751; 2150.426;    2.350;10430.468
816.284; 2191.382;    2.123;10361.859
816.818; 2223.852;    2.576;10252.118
817.351; 2266.750;    2.716;10199.703
817.884; 2302.391;    2.203;10154.906
818.418; 2355.227;    1.812;10126.190
818.951; 2392.800;    1.853;10031.190
819.484; 2446.509;    2.207;10035.844
820.018; 2505.752;    2.510;10014.389
820.551; 2567.914;    2.330;10049.086
821.084; 2635.470;    2.089;10078.036
821.617; 2707.593;    1.786;10089.631
822.150; 2771.646;    1.807;10079.384
822.683; 2837.374;    2.023;10049.619
823.216; 2916.235;    2.194;10002.643
823.749; 3005.506;    2.112;10002.903
824.282; 3088.639;    1.657; 9980.746
824.815; 3196.469;    1.874; 9964.790
825.347; 3296.961;    2.742; 9976.763
825.880; 3399.588;    3.019; 9988.958
826.413; 3507.397;    2.927; 9991.990
826.945; 3602.933;    2.514;10004.600
827.478; 3720.476;    2.552;10010.774
828.011; 3831.848;    3.257; 9967.705
828.543; 3927.351;    3.567; 9964.650
829.075; 4031.321;    3.350; 9938.459
829.608; 4132.148;    2.852; 9883.190
830.140; 4241.856;    2.564; 9901.529
830.673; 4364.202;    2.910; 9853.842
831.205; 4463.923;    3.237; 9780.764
831.737; 4586.132;    2.789; 9791.182
832.269; 4680.948;    2.252; 9696.285
832.801; 4798.785;    1.946; 9624.224
833.333; 4903.218;    2.033; 9577.904
833.865; 5010.579;    2.453; 9547.805
834.397; 5117.930;    2.577; 9523.343
834.929; 5205.872;    2.152; 9487.538
835.461; 5273.445;    2.126; 9365.161
835.993; 5359.385;    1.952; 9320.995
836.525; 5430.825;    2.206; 9308.481
837.057; 5525.297;    2.433; 9301.330
837.588; 5607.797;    2.402; 9277.372
838.120; 5672.870;    1.904; 9287.247
838.652; 5733.725;    1.642; 9355.522
839.183; 5810.909;    1.687; 9499.963
839.715; 5864.615;    2.240; 9580.639
840.246; 5892.331;    2.349; 9587.818
840.778; 5899.947;    2.330; 9564.621
841.309; 5899.526;    2.190; 9532.572
841.840; 5877.520;    2.450; 9519.996
842.372; 5846.998;    3.030; 9483.938
842.903; 5793.053;    3.136; 9441.794
843.434; 5733.148;    2.817; 9357.458
843.965; 5680.450;    2.310; 9319.769
844.496; 5614.094;    2.152; 9343.974
845.028; 5562.300;    2.639; 9396.660
845.559; 5507.986;    2.982; 9448.116
846.090; 5433.703;    2.784; 9452.687
846.620; 5357.585;    2.610; 9469.329
847.151; 5296.758;    2.837; 9519.497
847.682; 5220.817;    3.353; 9538.660
848.213; 5123.757;    3.534; 9525.329
848.744; 4997.123;    3.037; 9454.759
849.274; 4871.746;    2.373; 9379.308
849.805; 4770.413;    2.110; 9345.937
850.336; 4672.148;    2.430; 9311.855
850.866; 4545.769;    2.506; 9258.625
851.397; 4428.629;    2.189; 9260.577
851.927; 4335.723;    2.016; 9276.317
852.457; 4238.096;    1.852; 9306.553
852.988; 4142.006;    2.086; 9343.456
853.518; 4045.007;    2.549; 9353.948
854.048; 3942.566;    2.479; 9359.599
854.578; 3857.539;    2.274; 9405.596
855.109; 3785.617;    2.157; 9455.482
855.639; 3707.664;    2.010; 9469.054
856.169; 3640.734;    2.692; 9465.776
856.699; 3567.087;    3.046; 9451.917
857.229; 3491.942;    2.664; 9472.702
857.759; 3422.910;    2.403; 9458.188
858.289; 3360.328;    2.152; 9485.961
858.818; 3306.949;    2.507; 9528.114
859.348; 3240.964;    3.049; 9546.704
859.878; 3160.926;    2.714; 9543.730
860.408; 3099.409;    2.349; 9536.490
860.937; 3036.826;    2.439; 9497.186
861.467; 2981.722;    2.607; 9544.058
861.996; 2919.788;    3.050; 9520.332
862.526; 2852.039;    3.059; 9454.146
863.055; 2814.332;    2.804; 9499.622
863.585; 2777.154;    2.524; 9562.398
864.114; 2729.099;    2.357; 9587.175
864.643; 2689.444;    2.579; 9636.829
865.172; 2647.183;    2.674; 9660.092
865.702; 2622.689;    2.556; 9710.460
866.231; 2580.656;    2.096; 9756.873
866.760; 2531.015;    1.799; 9743.839
867.289; 2500.644;    2.307; 9755.036
867.818; 2480.590;    2.893; 9798.701
868.347; 2452.070;    2.700; 9825.833
868.876; 2418.223;    2.447; 9763.459
869.404; 2377.525;    1.980; 9737.922
869.933; 2348.424;    2.170; 9749.092
870.462; 2322.414;    2.723; 9793.668
870.991; 2315.415;    2.579; 9825.379
871.519; 2297.820;    2.239; 9886.887
872.048; 2280.163;    1.832; 9926.965
872.576; 2271.763;    1.757;10010.485
873.105; 2263.533;    2.226;10093.502
873.633; 2265.165;    2.629;10152.345
874.162; 2255.245;    2.180;10161.448
874.690; 2221.088;    1.759;10158.586
875.218; 2202.833;    1.462;10201.747
875.747; 2208.683;    2.067;10279.081
876.275; 2206.612;    2.576;10329.214
876.803; 2206.262;    2.683;10383.697
877.331; 2184.342;    2.096;10420.604
877.859; 2179.194;    1.849;10509.329
878.387; 2175.707;    2.222;10576.276
878.915; 2180.180;    2.842;10608.576
879.443; 2164.211;    2.752;10629.683
879.971; 2153.687;    2.447;10692.274
880.499; 2151.443;    2.079;10719.518
881.026; 2158.862;    2.347;10744.923
881.554; 2165.398;    3.103;10802.524
882.082; 2165.228;    2.962;10885.666
882.609; 2154.630;    2.556;10909.366
883.137; 2192.283;    2.903;10963.422
883.664; 2212.500;    2.989;11019.947
884.192; 2208.385;    3.380;11062.679
884.719; 2215.209;    3.577;11131.102
885.247; 2217.855;    3.287;11120.031
885.774; 2226.905;    3.103;11084.284
886.301; 2232.840;    2.832;11082.367
886.828; 2210.347;    2.439;11090.191
887.355; 2206.706;    2.522;11124.687
887.883; 2213.387;    2.340;11175.243
888.410; 2208.058;    1.873;11167.918
888.937; 2214.968;    1.709;11204.269
889.463; 2233.931;    2.000;11296.452
889.990; 2258.164;    2.764;11394.532
890.517; 2280.038;    3.017;11431.953
891.044; 2296.999;    2.646;11448.239
891.571; 2320.950;    2.276;11519.228
892.097; 2346.289;    2.307;11606.510
892.624; 2378.051;    2.804;11679.054
893.151; 2393.658;    2.763;11676.534
893.677; 2404.974;    2.170;11641.063
894.204; 2417.917;    1.604;11712.869
894.730; 2439.284;    1.544;11743.628
895.256; 2465.700;    2.004;11750.920
895.783; 2499.558;    2.417;11841.229
896.309; 2511.344;    1.769;11876.500
896.835; 2539.722;    1.559;11977.813
897.361; 2569.343;    1.603;12099.589
897.887; 2598.791;    1.909;12146.932
898.413; 2644.786;    2.613;12315.799
898.939; 2668.517;    2.652;12404.012
899.465; 2697.339;    2.444;12498.476
899.991; 2732.072;    2.314;12629.896
900.517; 2768.254;    2.446;12771.473
901.043; 2842.494;    3.206;12896.053
901.569; 2908.213;    3.334;13125.071
902.094; 2989.399;    3.354;13310.450
902.620; 3060.772;    3.176;13481.510
903.146; 3129.132;    3.120;13618.001
903.671; 3224.503;    3.769;13806.183
904.197; 3320.928;    4.130;14011.966
904.722; 3376.702;    3.550;14206.348
905.247; 3437.414;    3.282;14293.041
905.773; 3527.426;    3.019;14464.986
906.298; 3623.679;    3.240;14709.578
906.823; 3720.520;    3.577;14982.038
907.348; 3832.611;    3.473;15265.006
907.874; 3961.217;    2.982;15511.556
908.399; 4110.121;    2.692;15835.110
908.924; 4277.260;    3.016;16200.273
909.449; 4391.204;    3.177;16508.785
909.974; 4555.099;    3.036;16923.283
910.498; 4732.669;    2.793;17328.609
911.023; 4909.039;    2.434;17761.566
911.548; 5103.276;    2.523;18187.576
912.073; 5333.765;    3.410;18667.494
912.597; 5562.042;    3.563;19198.959
913.122; 5821.294;    3.259;19742.561
913.646; 6080.847;    3.086;20224.523
914.171; 6352.957;    2.784;20722.605
914.695; 6624.950;    2.906;21222.521
915.220; 6905.237;    3.034;21806.916
915.744; 7166.791;    2.206;22301.039
916.268; 7478.035;    1.524;22873.074
916.792; 7835.260;    1.380;23530.238
917.317; 8204.507;    1.507;24224.422
917.841; 8606.721;    2.016;24937.467
918.365; 9043.982;    2.123;25646.908
918.889; 9507.614;    1.912;26364.502
919.413; 9977.695;    1.887;27100.746
919.937;10435.671;    2.030;27777.152
920.460;10905.121;    2.297;28402.709
920.984;11436.097;    2.373;29150.492
921.508;12003.898;    2.309;29881.307
922.032;12575.510;    2.120;30680.703
922.555;13140.001;    2.004;31518.904
923.079;13747.647;    2.273;32388.623
923.602;14410.891;    2.616;33302.730
924.126;15078.358;    2.520;34195.930
924.649;15747.162;    2.530;34920.207
925.173;16417.704;    2.380;35716.066
925.696;17138.072;    2.843;36464.445
926.219;17886.462;    3.130;37299.285
926.742;18644.965;    2.983;38146.891
927.265;19416.678;    2.573;38976.273
927.788;20212.005;    2.239;39875.109
928.311;21009.107;    2.272;40773.555
928.834;21821.230;    2.582;41666.059
929.357;22620.647;    2.447;42550.793
929.880;23460.941;    2.117;43384.668
930.403;24362.414;    1.910;44289.578
930.926;25267.448;    2.197;45200.805
931.448;26120.325;    2.784;45881.578
931.971;27044.245;    3.134;46748.977
932.494;27963.985;    2.839;47677.344
933.016;28916.594;    2.637;48568.527
933.539;29846.187;    2.913;49428.512
934.061;30710.020;    3.514;50230.582
934.583;31529.990;    3.579;51015.633
935.106;32434.554;    3.426;51997.719
935.628;33169.697;    2.893;52761.930
936.150;33914.417;    2.750;53433.273
936.672;34595.782;    2.960;54131.781
937.194;35307.175;    3.810;54823.695
937.717;36004.888;    3.719;55589.617
938.238;36664.062;    3.602;56270.785
938.760;37288.348;    3.463;56925.250
939.282;37923.628;    3.720;57699.832
939.804;38463.824;    4.132;58443.074
940.326;38919.547;    3.876;59032.020
940.848;39315.995;    2.803;59697.023
941.369;39686.387;    2.282;60207.105
941.891;40051.752;    2.270;60739.371
942.412;40285.184;    2.580;61146.535
942.934;40494.471;    2.636;61415.410
943.455;40697.327;    2.512;61732.191
943.977;40886.527;    2.326;62112.648
944.498;40985.038;    2.294;62365.422
945.019;41051.060;    2.513;62637.707
945.540;41096.517;    2.769;62854.461
946.061;41109.860;    2.576;63095.852
946.583;41092.068;    2.217;63332.723
947.104;40936.435;    1.809;63457.359
947.625;40777.091;    2.222;63582.199
948.145;40597.392;    2.652;63622.527
948.666;40349.092;    2.642;63622.547
949.187;40037.400;    2.070;63622.547
949.708;39738.814;    1.747;63622.547
950.229;39504.061;    2.222;63622.547
950.749;39297.362;    2.880;63622.547
951.270;39013.754;    2.917;63622.547
951.790;38702.852;    2.654;63622.547
952.311;38348.260;    2.417;63622.547
952.831;37952.780;    2.617;63622.547
953.351;37549.538;    3.192;63622.547
953.872;37106.690;    3.172;63622.547
954.392;36661.342;    2.917;63622.547
954.912;36224.714;    2.380;63622.547
955.432;35724.055;    2.290;63622.547
955.952;35254.097;    2.739;63622.547
956.472;34803.884;    3.084;63622.547
956.992;34322.817;    2.762;63622.547
957.512;33762.258;    2.264;63622.547
958.032;33199.098;    1.833;63532.262
958.552;32701.767;    2.784;63504.820
959.072;32217.004;    3.216;63364.914
959.591;31763.825;    3.274;63263.574
960.111;31332.435;    2.850;63196.781
960.630;30869.512;    2.557;62986.195
961.150;30450.025;    2.799;62841.500
961.669;30049.770;    3.302;62742.633
962.189;29593.231;    2.752;62557.477
962.708;29199.458;    2.359;62371.625
963.227;28781.257;    1.872;62226.809
963.746;28325.760;    1.930;61942.617
964.266;27890.685;    2.306;61691.484
964.785;27473.000;    2.304;61331.680
965.304;27103.025;    2.217;61078.941
965.823;26736.578;    1.949;60635.340
966.342;26358.648;    1.766;60428.191
966.860;26004.645;    2.210;60120.004
967.379;25657.432;    2.429;59792.289
967.898;25294.145;    2.300;59497.418
968.417;24898.124;    2.090;59213.414
968.935;24482.067;    1.716;58832.531
969.454;24137.548;    1.984;58614.277
969.972;23820.787;    2.612;58243.492
970.491;23438.064;    2.547;57838.348
971.009;23044.958;    2.454;57435.824
971.527;22711.077;    2.204;57056.234
972.046;22420.887;    2.647;56576.109
972.564;22131.527;    3.236;56133.441
973.082;21841.224;    3.280;55759.000
973.600;21475.592;    2.760;55278.211
974.118;21200.197;    2.382;54927.426
974.636;21000.158;    2.372;54614.387
975.154;20808.390;    2.960;54394.617
975.672;20570.228;    2.902;54197.617
976.190;20356.900;    2.726;53941.109
976.707;20119.165;    2.676;53640.688
977.225;19914.971;    2.637;53398.617
977.743;19687.614;    3.109;53041.590
978.260;19430.044;    3.257;52707.586
978.778;19194.337;    2.950;52226.055
979.295;18998.054;    2.624;51865.840
979.813;18789.167;    2.294;51533.199
980.330;18558.531;    2.270;51120.422
980.847;18332.032;    2.719;50668.754
981.364;18128.361;    2.684;50289.602
981.882;17939.740;    2.644;49911.637
982.399;17760.505;    2.589;49598.129
982.916;17568.415;    2.517;49259.723
983.433;17385.638;    2.962;48947.969
983.950;17219.575;    3.203;48633.215
984.466;17081.254;    3.113;48387.238
984.983;16920.805;    2.673;48042.805
985.500;16777.500;    2.572;47802.168
986.017;16615.560;    2.683;47532.930
986.533;16496.180;    2.923;47317.250
987.050;16381.135;    2.903;46966.617
987.566;16246.680;    2.587;46668.813
988.083;16156.547;    2.309;46380.609
988.599;16101.874;    2.834;46166.215
989.115;16040.708;    3.257;45851.758
989.632;15950.064;    3.287;45588.469
990.148;15820.280;    2.962;45174.547
990.664;15691.775;    2.346;44854.375
991.180;15638.560;    2.416;44672.984
991.696;15564.142;    2.682;44452.504
992.212;15457.610;    2.522;44152.266
992.728;15364.831;    1.972;43964.152
993.244;15316.275;    1.713;43750.309
993.759;15302.200;    1.810;43581.016
994.275;15292.378;    2.432;43455.055
994.791;15230.665;    2.527;43199.113
995.306;15175.650;    2.440;42908.988
995.822;15120.642;    2.209;42579.008
996.337;15067.020;    2.030;42137.359
996.853;15002.702;    2.282;41768.715
997.368;14928.891;    2.360;41480.547
997.883;14889.034;    2.197;41091.008
998.399;14882.540;    2.144;40724.305
998.914;14845.585;    2.007;40468.547
999.429;14851.371;    2.112;40357.430
999.944;14902.505;    2.557;40297.449
1000.459;14950.745;    2.383;40163.867
1000.974;14977.378;    2.330;39916.711
1001.489;14916.970;    1.780;39623.426
1002.003;14887.765;    1.487;39384.430
1002.518;14906.830;    1.920;39180.191
1003.033;14905.974;    2.064;38910.250
1003.547;14859.452;    1.912;38641.512
1004.062;14826.251;    1.749;38428.656
1004.576;14789.988;    1.609;38101.621
1005.091;14834.295;    2.179;37897.547
1005.605;14858.034;    2.549;37715.797
1006.119;14863.990;    2.143;37495.773
1006.634;14858.174;    1.790;37185.254
1007.148;14886.808;    1.649;36862.855
1007.662;14925.884;    1.896;36473.949
1008.176;14995.797;    2.389;36386.141
1008.690;15047.075;    2.346;36271.355
1009.204;15064.561;    2.019;36016.840
1009.718;15075.355;    1.769;35684.918
1010.232;15136.378;    2.030;35388.047
1010.745;15146.490;    2.490;35116.422
1011.259;15154.807;    2.697;34913.055
1011.773;15193.535;    2.347;34621.551
1012.286;15257.367;    2.146;34371.059
1012.800;15330.967;    2.349;34085.102
1013.313;15454.211;    3.010;33880.461
1013.827;15529.991;    3.240;33727.223
1014.340;15643.381;    3.039;33545.277
1014.853;15727.368;    2.664;33300.844
1015.366;15766.041;    2.482;32898.785
1015.879;15790.968;    2.762;32553.359
1016.392;15824.400;    2.932;32282.133
1016.905;15841.034;    2.604;32026.051
1017.418;15882.898;    2.217;31785.176
1017.931;15927.204;    1.953;31554.885
1018.444;15986.791;    2.086;31295.619
1018.957;16058.860;    2.570;31150.408
1019.469;16149.422;    2.520;30979.613
1019.982;16241.634;    2.150;30731.809
1020.495;16300.568;    1.846;30422.285
1021.007;16359.430;    1.850;30041.791
1021.520;16418.115;    2.164;29747.840
1022.032;16493.594;    2.184;29453.471
1022.544;16602.292;    1.869;29166.754
1023.056;16675.012;    1.552;28804.457
1023.569;16743.071;    1.537;28556.045
1024.081;16851.068;    1.987;28375.811
1024.593;16932.925;    2.284;28091.252
1025.105;17011.651;    2.132;27792.154
1025.617;17101.432;    1.929;27553.668
1026.128;17155.138;    1.774;27290.357
1026.640;17237.355;    2.229;27076.352
1027.152;17319.684;    2.630;26809.574
1027.664;17408.471;    2.722;26490.369
1028.175;17533.012;    2.654;26329.713
1028.687;17620.057;    2.337;26039.875
1029.198;17670.825;    2.503;25655.727
1029.710;17773.012;    3.090;25365.354
1030.221;17852.575;    3.069;25063.055
1030.732;17946.007;    2.882;24800.590
1031.244;18000.794;    2.433;24537.537
1031.755;18037.928;    2.137;24251.926
1032.266;18107.992;    2.573;24028.807
1032.777;18200.292;    2.790;23860.662
1033.288;18246.191;    2.463;23568.455
1033.799;18330.901;    2.336;23215.146
1034.309;18448.101;    2.343;22963.000
1034.820;18543.400;    2.717;22662.727
1035.331;18664.855;    3.333;22417.885
1035.842;18743.165;    3.277;22090.092
1036.352;18872.295;    3.279;21801.348
1036.863;19032.144;    3.303;21652.621
1037.373;19104.482;    3.344;21424.164
1037.883;19145.701;    3.799;21041.703
1038.394;19283.838;    4.207;20804.199
1038.904;19387.317;    3.833;20515.896
1039.414;19501.288;    3.537;20313.012
1039.924;19570.195;    3.119;20077.188
1040.434;19604.265;    3.119;19719.982
1040.944;19725.304;    3.030;19532.789
1041.454;19819.440;    2.576;19384.912
1041.964;19836.102;    1.752;19087.643
1042.474;19899.058;    1.684;18844.938
1042.984;19978.428;    2.099;18594.365
1043.493;20036.424;    2.466;18367.119
1044.003;20118.525;    2.487;18155.055
1044.513;20185.215;    2.329;17871.613
1045.022;20247.755;    2.163;17585.314
1045.531;20349.504;    2.847;17309.871
1046.041;20390.424;    3.176;16993.605
1046.550;20446.992;    3.082;16713.688
1047.059;20510.694;    2.839;16379.297
1047.568;20597.604;    2.723;16151.854
1048.077;20684.887;    2.920;15980.566
1048.586;20795.142;    3.289;15843.576
1049.095;20849.938;    2.837;15698.096
1049.604;20962.790;    2.484;15584.145
1050.113;21068.528;    2.252;15427.253
1050.622;21175.530;    2.439;15308.589
1051.131;21224.127;    2.810;15082.664
1051.639;21284.524;    2.864;14862.076
1052.148;21356.108;    2.637;14645.816
1052.656;21475.594;    2.717;14487.964
1053.165;21547.244;    2.860;14279.916
1053.673;21605.390;    3.250;14054.473
1054.181;21655.835;    3.344;13876.803
1054.689;21722.108;    3.040;13713.152
1055.198;21764.847;    2.759;13537.778
1055.706;21774.162;    2.224;13324.923
1056.214;21775.691;    2.103;13131.906
1056.722;21753.718;    2.044;12938.912
1057.230;21776.711;    1.694;12785.721
1057.737;21768.157;    1.372;12564.434
1058.245;21757.208;    1.187;12349.795
1058.753;21750.045;    1.197;12117.972
1059.260;21744.447;    1.950;11907.732
1059.768;21692.892;    2.176;11648.731
1060.275;21679.021;    2.266;11439.057
1060.783;21635.717;    2.082;11230.695
1061.290;21646.214;    2.136;11094.542
1061.798;21657.222;    2.334;10972.809
1062.305;21685.977;    3.027;10880.651
1062.812;21676.014;    2.983;10728.360
1063.319;21688.540;    2.737;10627.897
1063.826;21704.454;    2.776;10498.917
1064.333;21697.008;    3.279;10372.106
1064.840;21654.218;    3.453;10197.577
1065.347;21603.090;    3.526;10012.375
1065.853;21502.395;    2.713; 9772.009
1066.360;21457.708;    2.362; 9597.981
1066.867;21432.521;    2.513; 9465.561
1067.373;21403.612;    2.569; 9357.037
1067.880;21394.701;    2.506; 9242.722
1068.386;21399.162;    2.879; 9132.897
1068.893;21388.862;    2.800; 9048.545
1069.399;21394.928;    3.000; 9030.695
1069.905;21370.715;    3.579; 8954.759
1070.411;21298.604;    3.569; 8798.769
1070.917;21205.355;    3.347; 8647.953
1071.423;21080.021;    3.076; 8453.875
1071.929;20967.242;    2.506; 8304.103
1072.435;20833.590;    2.697; 8115.749
1072.941;20724.927;    3.044; 7933.825
1073.447;20619.115;    2.792; 7803.302
1073.952;20530.654;    2.643; 7733.983
1074.458;20452.690;    2.493; 7656.602
1074.963;20378.987;    2.722; 7592.441
1075.469;20285.087;    2.964; 7512.932
1075.974;20232.780;    3.243; 7468.063
1076.480;20117.525;    2.909; 7376.791
1076.985;19982.741;    2.632; 7261.283
1077.490;19837.057;    2.774; 7114.183
1077.995;19682.015;    3.122; 6976.710
1078.500;19516.298;    3.053; 6843.616
1079.005;19380.370;    2.957; 6752.896
1079.510;19224.350;    2.196; 6668.232
1080.015;19116.854;    2.196; 6636.338
1080.520;18990.988;    2.507; 6585.188
1081.024;18865.067;    2.746; 6518.342
1081.529;18708.452;    2.454; 6424.997
1082.034;18541.247;    2.220; 6316.505
1082.538;18379.015;    2.122; 6217.849
1083.043;18210.572;    2.567; 6112.647
1083.547;17970.435;    2.839; 5910.792
1084.051;17776.822;    2.799; 5784.195
1084.556;17577.395;    2.287; 5659.222
1085.060;17439.775;    2.177; 5615.208
1085.564;17332.482;    2.460; 5618.755
1086.068;17154.220;    2.744; 5536.627
1086.572;16962.670;    2.696; 5430.294
1087.076;16854.877;    2.346; 5439.927
1087.579;16713.257;    2.072; 5404.441
1088.083;16568.767;    2.159; 5376.665
1088.587;16429.882;    2.490; 5355.822
1089.091;16262.604;    2.607; 5288.697
1089.594;16144.564;    2.523; 5284.645
1090.098;16037.142;    2.460; 5291.539
1090.601;15879.205;    2.553; 5244.263
1091.104;15720.931;    2.830; 5195.975
1091.608;15573.798;    3.040; 5150.841
1092.111;15397.291;    2.816; 5072.273
1092.614;15225.722;    2.429; 5008.488
1093.117;15049.655;    2.024; 4942.912
1093.620;14877.174;    2.177; 4875.650
1094.123;14733.744;    2.384; 4829.920
1094.626;14620.772;    2.306; 4815.296
1095.128;14511.168;    2.209; 4803.711
1095.631;14385.638;    1.953; 4762.972
1096.134;14329.315;    2.140; 4802.609
1096.636;14217.660;    2.423; 4762.596
1097.139;14128.320;    2.472; 4759.360
1097.641;14007.281;    2.163; 4711.942
1098.144;13911.004;    1.896; 4694.844
1098.646;13803.881;    1.749; 4653.817
1099.148;13711.424;    2.306; 4617.034
1099.650;13589.967;    2.543; 4541.768
1100.152;13562.345;    2.624; 4591.478
1100.654;13521.942;    2.053; 4606.142
1101.156;13477.094;    1.739; 4603.552
1101.658;13466.608;    2.094; 4649.595
1102.160;13442.447;    2.372; 4676.285
1102.661;13412.938;    2.084; 4691.736
1103.163;13371.077;    1.644; 4682.379
1103.665;13295.251;    1.396; 4610.822
1104.166;13255.990;    2.013; 4592.904
1104.668;13236.991;    2.654; 4596.018
1105.169;13169.034;    2.604; 4517.614
1105.670;13172.062;    2.594; 4541.507
1106.171;13164.894;    2.633; 4537.230
1106.673;13147.621;    2.646; 4521.662
1107.174;13157.240;    3.170; 4534.950
1107.675;13132.838;    3.092; 4504.059
1108.176;13124.035;    2.919; 4492.615
1108.677;13126.210;    2.780; 4496.758
1109.177;13083.370;    2.736; 4410.517
1109.678;13064.635;    2.997; 4375.675
1110.179;13090.080;    3.584; 4392.108
1110.679;13084.935;    3.229; 4371.376
1111.180;13108.594;    2.934; 4386.493
1111.680;13130.042;    2.722; 4401.255
1112.181;13126.888;    2.937; 4382.575
1112.681;13128.260;    3.180; 4381.578
1113.181;13116.001;    2.914; 4349.369
1113.681;13092.982;    2.363; 4313.968
1114.181;13066.597;    2.090; 4282.822
1114.681;13021.975;    2.232; 4218.349
1115.181;12950.468;    2.617; 4122.668
1115.681;12903.325;    2.642; 4071.019
1116.181;12844.157;    2.194; 4013.261
1116.681;12796.745;    2.032; 3984.944
1117.180;12715.634;    1.989; 3922.824
1117.680;12616.394;    2.422; 3841.386
1118.179;12531.668;    2.506; 3786.503
1118.679;12455.731;    2.299; 3752.450
1119.178;12370.957;    1.994; 3702.206
1119.677;12289.830;    1.892; 3669.481
1120.177;12192.478;    2.096; 3623.697
1120.676;12085.558;    2.334; 3572.163
1121.175;11971.492;    2.174; 3514.432
1121.674;11849.692;    1.890; 3471.236
1122.173;11737.651;    1.629; 3444.517
1122.672;11590.837;    1.823; 3383.060
1123.170;11443.638;    2.270; 3329.537
1123.669;11280.205;    2.413; 3257.476
1124.168;11118.911;    2.217; 3185.566
1124.666;10980.080;    2.097; 3157.632
1125.165;10823.618;    2.352; 3100.342
1125.663;10650.174;    2.784; 3024.888
1126.161;10481.104;    2.783; 2957.844
1126.660;10307.888;    2.483; 2888.217
1127.158;10154.328;    2.226; 2847.043
1127.656; 9999.417;    2.394; 2805.782
1128.154; 9829.174;    2.723; 2743.097
1128.652; 9664.025;    2.927; 2695.135
1129.150; 9485.125;    2.743; 2629.151
1129.648; 9321.010;    3.150; 2584.330
1130.145; 9150.265;    3.444; 2529.145
1130.643; 8983.415;    3.749; 2482.469
1131.141; 8795.962;    3.964; 2407.491
1131.638; 8610.031;    3.662; 2327.719
1132.136; 8429.324;    3.180; 2248.120
1132.633; 8273.708;    3.030; 2204.013
1133.130; 8100.438;    2.537; 2135.113
1133.628; 7949.098;    2.604; 2093.670
1134.125; 7779.754;    2.526; 2025.073
1134.622; 7649.084;    2.144; 2010.190
1135.119; 7510.935;    1.992; 1985.589
1135.616; 7357.387;    2.067; 1938.569
1136.113; 7201.395;    2.550; 1885.344
1136.610; 7077.078;    2.687; 1871.835
1137.106; 6936.421;    2.326; 1833.252
1137.603; 6794.122;    2.083; 1792.829
1138.100; 6645.788;    2.197; 1737.667
1138.596; 6507.864;    2.414; 1692.750
1139.092; 6386.410;    2.806; 1671.765
1139.589; 6264.212;    2.634; 1650.065
1140.085; 6124.392;    2.349; 1599.450
1140.581; 5986.108;    2.139; 1546.986
1141.077; 5879.022;    2.413; 1532.773
1141.573; 5764.171;    2.539; 1506.949
1142.069; 5653.982;    2.557; 1489.667
1142.565; 5537.760;    2.262; 1457.024
1143.061; 5426.848;    1.889; 1426.755
1143.557; 5312.694;    2.149; 1396.590
1144.053; 5196.808;    2.483; 1360.365
1144.548; 5072.268;    2.506; 1305.560
1145.044; 4967.037;    2.410; 1281.092
1145.539; 4870.738;    2.326; 1266.983
1146.035; 4767.992;    2.292; 1240.785
1146.530; 4675.694;    2.594; 1229.922
1147.025; 4607.158;    2.654; 1248.090
1147.520; 4547.900;    2.877; 1276.898
1148.015; 4491.032;    2.840; 1314.400
1148.510; 4409.071;    2.797; 1311.918
1149.005; 4326.555;    3.192; 1303.986
1149.500; 4250.022;    3.476; 1305.616
1149.995; 4158.601;    3.470; 1280.368
1150.490; 4044.230;    3.074; 1215.801
1150.984; 3938.382;    2.562; 1165.601
1151.479; 3822.801;    2.486; 1098.066
1151.973; 3726.171;    2.662; 1053.232
1152.468; 3625.784;    2.397; 1003.382
1152.962; 3529.034;    2.156;  956.020
1153.456; 3460.200;    2.157;  952.558
1153.950; 3389.265;    2.269;  943.715
1154.445; 3319.817;    2.806;  934.926
1154.939; 3253.464;    2.849;  926.575
1155.433; 3184.370;    2.677;  913.804
1155.926; 3116.160;    2.436;  897.591
1156.420; 3047.452;    2.254;  880.284
1156.914; 2954.158;    2.156;  826.262
1157.408; 2888.681;    2.360;  814.630
1157.901; 2825.437;    2.097;  805.590
1158.395; 2766.600;    1.899;  800.486
1158.888; 2700.381;    1.689;  782.174
1159.381; 2640.181;    1.963;  773.196
1159.875; 2583.990;    2.367;  766.613
1160.368; 2538.282;    2.614;  768.124

